 Al2O3 Density=3.987
 Energy(eV), Delta, Beta
  30.  0.160272911  0.258509696
  30.0969162  0.160042688  0.2571114
  30.1941452  0.159808785  0.255720735
  30.2916889  0.159573257  0.254337639
  30.3895454  0.159337521  0.252962023
  30.4877224  0.159098133  0.251593828
  30.5862122  0.158855304  0.250233173
  30.6850224  0.158609018  0.248879895
  30.784153  0.158362225  0.247533917
  30.8836021  0.158116505  0.246195272
  30.9833736  0.157867402  0.244863942
  31.0834618  0.157614961  0.243539914
  31.1838799  0.157359272  0.242223009
  31.2846203  0.157104343  0.240913332
  31.3856869  0.156851634  0.239610791
  31.4870815  0.156595662  0.238315344
  31.5887985  0.156336546  0.23702696
  31.6908474  0.156074256  0.235745579
  31.7932243  0.155814886  0.234471187
  31.8959351  0.155559704  0.233203679
  31.9989758  0.155301407  0.231943116
  32.1023521  0.155039951  0.230689347
  32.2060547  0.1547755  0.229442537
  32.3101006  0.154515773  0.228201538
  32.4144783  0.154261589  0.2269665
  32.5191956  0.154004261  0.225738138
  32.6242485  0.153743893  0.224516481
  32.7296448  0.153480485  0.223301455
  32.8353767  0.153222173  0.222089574
  32.941452  0.152968869  0.220880777
  33.0478745  0.152712449  0.219678476
  33.1546364  0.15245305  0.218482822
  33.2617416  0.15219067  0.21729368
  33.369194  0.151934698  0.216111034
  33.4769936  0.15168415  0.214934856
  33.585144  0.151430532  0.21376504
  33.6936417  0.151173919  0.212601617
  33.8024902  0.150914356  0.211444542
  33.9116898  0.150665835  0.21029377
  34.021244  0.150425717  0.209149301
  34.1311493  0.150182471  0.208011046
  34.2414131  0.14993611  0.20687902
  34.3520317  0.149686709  0.205753133
  34.4630051  0.149454653  0.2046334
  34.5743408  0.149234369  0.203519732
  34.6860352  0.149010748  0.202412128
  34.7980843  0.148783877  0.201310664
  34.9105034  0.148553684  0.200215071
  35.0232849  0.148356214  0.199125454
  35.136425  0.148179084  0.198041871
  35.2499352  0.14799805  0.196964115
  35.3638153  0.147813216  0.195892215
  35.478054  0.147624701  0.194826245
  35.5926704  0.14749904  0.193765998
  35.707653  0.147408798  0.192711592
  35.8230095  0.147313595  0.191662863
  35.938736  0.147213534  0.190619916
  36.0548363  0.147108674  0.189582646
  36.1713104  0.147075996  0.188358486
  36.2881622  0.147078767  0.187039167
  36.4053955  0.147075549  0.185729101
  36.5230026  0.147066236  0.184428304
  36.6409912  0.147050962  0.183136612
  36.7593651  0.146896139  0.181801349
  36.8781128  0.146673426  0.180450812
  36.9972496  0.14644745  0.179110363
  37.1167717  0.146218315  0.177779853
  37.2366791  0.14598608  0.176459312
  37.3569756  0.145700321  0.175148562
  37.4776535  0.145390809  0.173847675
  37.598732  0.145079166  0.172556385
  37.720192  0.144765601  0.171274841
  37.8420486  0.144450024  0.170002803
  37.9642982  0.144100368  0.168740347
  38.0869408  0.143737152  0.167487353
  38.2099838  0.143372715  0.166243657
  38.3334236  0.14300698  0.165009275
  38.4572639  0.14264001  0.163784087
  38.5814972  0.142248213  0.162568063
  38.7061348  0.141847685  0.161361098
  38.8311806  0.141446456  0.16016306
  38.9566269  0.141044527  0.158974022
  39.0824738  0.140641943  0.157793894
  39.2087326  0.140219644  0.156622544
  39.3353958  0.139791548  0.15546
  39.462471  0.13936314  0.154306099
  39.5899544  0.138934463  0.15316081
  39.7178535  0.138505518  0.15202406
  39.8461647  0.138060838  0.150895789
  39.9748878  0.137612388  0.149775937
  40.1040268  0.137163982  0.148664474
  40.2335854  0.136715651  0.147561267
  40.3635635  0.136267409  0.146466285
  40.4939575  0.135806531  0.145378873
  40.6247749  0.135343298  0.144299418
  40.756012  0.134880438  0.143228069
  40.8876762  0.134417877  0.142164662
  41.0197678  0.133955702  0.141109213
  41.1522827  0.133481398  0.140058488
  41.2852249  0.13300553  0.139015093
  41.418602  0.132530212  0.137979463
  41.5524025  0.132055551  0.136951625
  41.6866379  0.131581485  0.135931417
  41.821312  0.131095737  0.134918913
  41.9564133  0.13060914  0.133914039
  42.0919571  0.130123332  0.132916629
  42.2279358  0.129638404  0.131926671
  42.3643532  0.129154339  0.130944133
  42.5012131  0.128661096  0.129968882
  42.6385155  0.128167763  0.129000887
  42.7762642  0.127675459  0.128040105
  42.9144516  0.127184242  0.127086565
  43.0530891  0.126694009  0.126140103
  43.192173  0.126196191  0.125200748
  43.331707  0.12569885  0.12426839
  43.4716911  0.125202686  0.123342983
  43.6121292  0.124707714  0.122424491
  43.7530174  0.124213941  0.121512882
  43.8943634  0.123714268  0.120608106
  44.0361633  0.123215556  0.119710073
  44.1784248  0.122718118  0.11881873
  44.3211479  0.122221977  0.117934033
  44.4643288  0.121727154  0.117055975
  44.6079712  0.121228181  0.116184436
  44.752079  0.120730489  0.115319394
  44.8966484  0.120234191  0.114460826
  45.0416908  0.119739264  0.113608673
  45.1871986  0.119245723  0.112762868
  45.3331757  0.118750371  0.111923411
  45.4796295  0.118256427  0.111090183
  45.6265526  0.117763951  0.110263214
  45.7739487  0.117272928  0.109442428
  45.9218254  0.116783313  0.108627751
  46.0701752  0.11629492  0.10781917
  46.2190056  0.115807973  0.107016638
  46.3683205  0.115322456  0.106220052
  46.518116  0.114838414  0.105429448
  46.6683922  0.114356369  0.104644746
  46.8191566  0.113884725  0.103865899
  46.9704094  0.113414392  0.103092857
  47.1221466  0.11294543  0.102325581
  47.2743759  0.112477794  0.101564057
  47.4270973  0.112012818  0.100807339
  47.5803146  0.111563891  0.100046657
  47.734024  0.111116126  0.0992917046
  47.8882294  0.110669494  0.0985424593
  48.0429344  0.110224016  0.097798869
  48.1981354  0.109783165  0.0970562398
  48.3538437  0.109372377  0.0962805003
  48.5100517  0.108962312  0.0955109522
  48.6667671  0.108553007  0.0947475806
  48.8239861  0.10814447  0.0939903185
  48.9817123  0.10773053  0.0932279527
  49.1399498  0.107277006  0.0923988074
  49.2986984  0.10682486  0.0915770382
  49.457962  0.106374077  0.0907625705
  49.617733  0.105924726  0.0899553746
  49.7780266  0.105467841  0.0891553313
  49.938839  0.104965135  0.0883624032
  50.1001625  0.104464591  0.0875765681
  50.2620163  0.103966095  0.086797677
  50.4243889  0.1034697  0.0860257298
  50.5872841  0.102969564  0.0852606669
  50.7507095  0.102445416  0.0845023617
  50.9146614  0.101923749  0.0837508217
  51.0791435  0.101404555  0.0830059648
  51.2441559  0.100887835  0.0822677165
  51.4097023  0.100368284  0.0815360621
  51.5757828  0.0998312607  0.0808108971
  51.7424011  0.0992969871  0.0800921768
  51.9095573  0.0987654552  0.079379864
  52.0772514  0.0982366428  0.0786738843
  52.2454872  0.0977052152  0.0779741928
  52.4142685  0.0971590281  0.0772807524
  52.5835953  0.0966158211  0.0765934885
  52.7534676  0.096075587  0.0759123415
  52.9238892  0.0955383182  0.0752372593
  53.0948639  0.0949984938  0.0745686814
  53.2663879  0.0944460705  0.0739075243
  53.4384651  0.0938968584  0.0732522383
  53.6110992  0.0933507755  0.0726027563
  53.7842941  0.0928078219  0.0719590187
  53.958046  0.0922628269  0.0713213757
  54.1323586  0.0917079672  0.0706903115
  54.3072357  0.091156438  0.0700648203
  54.4826775  0.0906082094  0.0694448724
  54.6586838  0.0900632665  0.0688304156
  54.8352585  0.0895160958  0.0682213977
  55.0124054  0.0889600143  0.0676177591
  55.1901283  0.0884073898  0.0670194477
  55.3684235  0.0878582001  0.0664264411
  55.5472908  0.0873124152  0.0658386946
  55.726738  0.0867638588  0.0652561262
  55.906765  0.0862065926  0.0646786988
  56.0873756  0.0856528878  0.0641063675
  56.2685699  0.0851027369  0.0635391027
  56.4503441  0.0845561326  0.0629768744
  56.6327095  0.0840062723  0.0624196343
  56.8156624  0.0834480301  0.0618673488
  56.9992104  0.0828934908  0.0613199398
  57.1833458  0.082342647  0.0607773885
  57.3680763  0.0817954466  0.0602396466
  57.5534058  0.0812444165  0.0597066432
  57.7393341  0.0806851909  0.0591783561
  57.9258652  0.0801298022  0.0586547442
  58.1129951  0.0795782432  0.0581357703
  58.3007317  0.0790304393  0.0576213822
  58.4890747  0.0784774646  0.0571115352
  58.6780243  0.0779155567  0.056606181
  58.8675842  0.0773576349  0.0561053045
  59.0577621  0.076803647  0.0556088388
  59.2485504  0.0762536079  0.055116795
  59.4399529  0.0756979585  0.0546303913
  59.6319771  0.0751340836  0.054149963
  59.8246193  0.074574329  0.053673774
  60.0178833  0.0740186796  0.0532017797
  60.2117729  0.0734670907  0.0527339429
  60.4062881  0.0729097947  0.0522707514
  60.6014366  0.072345309  0.051812239
  60.7972107  0.0717850849  0.0513577685
  60.993618  0.0712290779  0.0509073064
  61.1906586  0.0706772581  0.0504608005
  61.38834  0.0701176226  0.0500182062
  61.5866508  0.0695497319  0.0495794974
  61.785614  0.0689862221  0.0491446331
  61.9852142  0.0684271008  0.0487136059
  62.1854553  0.0678723305  0.0482863784
  62.3863525  0.067305088  0.0478629097
  62.5878868  0.0667264834  0.0474431999
  62.7900848  0.0661525354  0.0470271707
  62.9929314  0.0655832067  0.0466148034
  63.1964264  0.0650184751  0.0462060757
  63.400589  0.0644413307  0.0458064415
  63.6054039  0.063854441  0.0454150811
  63.8108826  0.0632724166  0.0450271815
  64.0170288  0.062695235  0.0446427353
  64.2238388  0.0621228702  0.0442617014
  64.4313202  0.0615387447  0.043884512
  64.6394653  0.0609468147  0.0435110629
  64.8482819  0.0603599511  0.0431409366
  65.0577698  0.0597781241  0.0427741148
  65.267952  0.059201248  0.0424105264
  65.4788055  0.0586041659  0.0420501828
  65.6903305  0.0579948388  0.041693069
  65.9025497  0.0573909059  0.0413391143
  66.1154404  0.0567923635  0.0409883298
  66.3290329  0.0561991222  0.0406406522
  66.5433121  0.0555775166  0.040296074
  66.7582779  0.054940518  0.0399545804
  66.9739456  0.0543094017  0.0396161117
  67.1903076  0.0536841378  0.0392806605
  67.4073639  0.0530646741  0.0389482044
  67.6251373  0.0524019487  0.0386179537
  67.8435974  0.0517180711  0.0382902361
  68.062767  0.0510408171  0.0379654206
  68.2826462  0.0503701381  0.0376434848
  68.5032349  0.0497059748  0.0373244137
  68.7245407  0.0489697829  0.037008062
  68.9465561  0.0482015721  0.0366944596
  69.1692886  0.0474412143  0.0363836475
  69.392746  0.0466886349  0.0360755809
  69.6169205  0.0459437817  0.0357702523
  69.8418198  0.0450603068  0.0354689509
  70.0674438  0.0441208072  0.0351708904
  70.2937927  0.0431915335  0.0348754637
  70.5208817  0.0422723815  0.0345826335
  70.748703  0.0413632579  0.034292385
  70.9772568  0.0400508419  0.0340050086
  71.2065582  0.0385898836  0.0337202735
  71.4365921  0.0371460654  0.033438053
  71.667366  0.035719227  0.0331583135
  71.8988953  0.0343091898  0.0328810327
  72.1311646  0.0306514166  0.0326061919
  72.3641891  0.0262509882  0.032333754
  72.5979614  0.021905886  0.0320637226
  72.832489  0.0221662708  0.0488653444
  73.0677795  0.027409669  0.0486885086
  73.3038254  0.0294525456  0.0485143885
  73.5406342  0.0305163767  0.0483429767
  73.7782135  0.031565316  0.0481742769
  74.0165558  0.0325994976  0.0480082817
  74.2556686  0.033619076  0.0478449613
  74.4955597  0.0340253264  0.0476843044
  74.7362137  0.0342679918  0.0475263111
  74.9776535  0.0345061198  0.047370933
  75.2198715  0.03473977  0.0472181626
  75.4628677  0.0349689946  0.0470679961
  75.7066574  0.035054028  0.0469203778
  75.9512329  0.0351052582  0.046775315
  76.1965942  0.0351543836  0.0466328077
  76.442749  0.0352014266  0.046492815
  76.6896973  0.0352464095  0.0463553369
  76.9374466  0.0352310501  0.0462203436
  77.185997  0.0352035277  0.0460878313
  77.4353485  0.0351748988  0.0459577814
  77.6855087  0.0351451822  0.0458301753
  77.9364777  0.0351143926  0.0457049944
  78.1882477  0.0350556821  0.045582246
  78.4408417  0.034992177  0.0454618745
  78.6942444  0.0349280424  0.0453438945
  78.9484711  0.0348632783  0.0452282839
  79.2035141  0.0347979143  0.045115035
  79.4593811  0.0347265638  0.0450041257
  79.7160797  0.0346540511  0.0448955372
  79.9736023  0.0345810354  0.0447892733
  80.2319565  0.0345075279  0.0446853042
  80.4911575  0.0344335213  0.0445836
  80.7511826  0.0343581811  0.0444709659
  81.0120544  0.0342822969  0.0443592705
  81.2737656  0.0342059731  0.0442496948
  81.5363235  0.0341292061  0.0441422164
  81.7997284  0.0340520181  0.0440368354
  82.0639877  0.0339707844  0.0439327471
  82.3290939  0.0338889696  0.0438306741
  82.5950623  0.0338068008  0.0437306277
  82.8618927  0.0337242819  0.0436326228
  83.1295776  0.0336414352  0.0435366258
  83.3981323  0.033569593  0.0434426218
  83.6675491  0.0334976502  0.0433506146
  83.9378433  0.033425238  0.0432605706
  84.2089996  0.0333523825  0.043172501
  84.481041  0.0332790762  0.0430863723
  84.7539673  0.0332529619  0.0430021919
  85.0277634  0.03322611  0.0429199599
  85.3024521  0.0331982225  0.042839624
  85.5780258  0.033169318  0.042761188
  85.8544846  0.0331401154  0.0426835343
  86.1318359  0.0331445858  0.0425512157
  86.4100952  0.0331476182  0.0424204282
  86.6892471  0.0331492424  0.0422911756
  86.9692993  0.0331494808  0.0421634428
  87.2502594  0.0331472792  0.0420342386
  87.5321198  0.0331210718  0.0418427363
  87.8148956  0.0330938287  0.0416526943
  88.098587  0.0330655649  0.0414640903
  88.3831863  0.0330363065  0.0412769429
  88.6687164  0.0330040343  0.0410911925
  88.955162  0.0329443179  0.0409068651
  89.2425308  0.0328840129  0.0407239385
  89.530838  0.0328231119  0.040542379
  89.8200607  0.0327616446  0.0403622203
  90.1102371  0.0326986425  0.04018341
  90.4013367  0.0326261409  0.0400059521
  90.6933823  0.0325532183  0.039829839
  90.9863663  0.0324798897  0.0396550559
  91.280304  0.0324061513  0.039481584
  91.5751877  0.0323314779  0.0393094197
  91.8710251  0.0322525315  0.0391385481
  92.1678162  0.0321732648  0.0389689691
  92.4655685  0.0320936777  0.0388006493
  92.7642822  0.0320137851  0.0386335962
  93.0639648  0.0319333747  0.0384677909
  93.3646088  0.0318514146  0.0383032188
  93.6662216  0.0317691788  0.038139876
  93.9688187  0.0316866897  0.0379777476
  94.2723846  0.0316039436  0.0378168263
  94.5769348  0.031521149  0.0376571082
  94.8824692  0.0314390324  0.0374985822
  95.1889877  0.03135667  0.0373412408
  95.4965057  0.0312740617  0.0371850505
  95.8050079  0.0311912261  0.0370300263
  96.1145096  0.0311089214  0.0368761532
  96.4250031  0.0310294572  0.0367234051
  96.7365112  0.0309497211  0.0365717784
  97.0490265  0.0308697354  0.0364212692
  97.3625412  0.0307894982  0.0362718776
  97.6770782  0.0307113621  0.0361224189
  97.9926224  0.0306411441  0.0359700769
  98.3091888  0.0305705555  0.0358189046
  98.6267853  0.0304996055  0.0356688872
  98.9454041  0.0304283053  0.0355200246
  99.2650528  0.0303557236  0.035369046
  99.5857315  0.0302799791  0.0352094546
  99.9074402  0.0302039608  0.0350512415
  100.230194  0.0301276613  0.0348943807
  100.553993  0.0300510954  0.0347388647
  100.878838  0.0299741756  0.0345846936
  101.204735  0.0298967604  0.0344318449
  101.531677  0.029819103  0.0342803076
  101.85968  0.0297412071  0.0341300629
  102.188736  0.0296630859  0.0339810997
  102.51886  0.0295864064  0.0338321738
  102.850052  0.0295133814  0.0336816423
  103.182312  0.0294400696  0.0335323662
  103.51564  0.0293664858  0.0333843306
  103.850052  0.0292926263  0.0332375206
  104.185547  0.0292185452  0.0330886692
  104.522125  0.0291443039  0.0329342373
  104.859787  0.0290698037  0.0327810273
  105.19854  0.0289950632  0.0326290317
  105.538391  0.0289200749  0.0324782394
  105.879326  0.0288433377  0.0323286355
  106.221375  0.0287635773  0.0321802087
  106.564529  0.0286836494  0.0320329368
  106.908791  0.0286035612  0.0318868272
  107.254166  0.0285233166  0.031741865
  107.600647  0.0284435861  0.0315980464
  107.948257  0.0283647999  0.0314553604
  108.296982  0.0282858536  0.0313137844
  108.646843  0.028206747  0.0311733149
  108.997826  0.0281274896  0.0310339369
  109.34996  0.0280490983  0.0308956411
  109.703217  0.0279720761  0.0307584368
  110.05761  0.0278948862  0.0306222923
  110.413155  0.0278175324  0.0304871984
  110.769852  0.0277400147  0.0303531382
  111.127693  0.0276639387  0.0302201062
  111.486694  0.0275898222  0.0300880857
  111.846855  0.0275155157  0.0299570691
  112.208183  0.0274410192  0.0298270565
  112.570671  0.0273663495  0.0296980403
  112.934341  0.0272936504  0.0295699984
  113.299179  0.0272233579  0.0294429287
  113.665192  0.0271528382  0.0293168258
  114.032394  0.0270820968  0.0291916691
  114.40078  0.0270111449  0.0290674642
  114.770355  0.0269429013  0.0289441925
  115.141129  0.0268775951  0.0288218353
  115.513092  0.0268120188  0.0287004057
  115.886261  0.0267461669  0.0285798833
  116.260635  0.0266800579  0.0284602586
  116.636215  0.0266175829  0.0283415522
  117.013016  0.0265586544  0.028223753
  117.391037  0.0264993832  0.0281068254
  117.770271  0.0264397822  0.0279907677
  118.150726  0.0263798498  0.0278755724
  118.532417  0.0263250005  0.0277612023
  118.915344  0.0262745805  0.0276476685
  119.2995  0.0262237228  0.0275349673
  119.684898  0.0261724368  0.0274230968
  120.071556  0.0261207167  0.0273120385
  120.459435  0.0260767955  0.027201809
  120.848595  0.0260389484  0.0270923711
  121.238998  0.0260005165  0.0269837361
  121.630669  0.0259615015  0.0268758796
  122.023605  0.025921911  0.0267688129
  122.417793  0.0258999486  0.0266625378
  122.813271  0.0258904118  0.0265570246
  123.210022  0.0258799251  0.026452275
  123.608047  0.025868509  0.0263482817
  124.007378  0.0258561578  0.0262450259
  124.40799  0.0258555356  0.026102569
  124.809891  0.0258620903  0.0259349924
  125.213097  0.0258674882  0.0257686097
  125.617607  0.0258717481  0.0256034024
  126.023415  0.0258748885  0.0254393797
  126.430534  0.0258573778  0.0252653062
  126.838974  0.0258274861  0.0250858888
  127.248734  0.0257969089  0.0249078199
  127.659821  0.0257656556  0.0247310884
  128.07222  0.0257337447  0.0245556869
  128.485962  0.0256895293  0.024381604
  128.901047  0.0256387033  0.0242088232
  129.317459  0.0255874787  0.0240373537
  129.735214  0.0255358499  0.0238671619
  130.154343  0.0254838187  0.0236982349
  130.574799  0.0254267994  0.0235305913
  130.996628  0.0253672916  0.0233641993
  131.419815  0.0253075007  0.0231990553
  131.844376  0.0252474248  0.0230351407
  132.270294  0.0251870807  0.0228724629
  132.697601  0.0251228418  0.0227109976
  133.126282  0.0250568725  0.0225507412
  133.556351  0.0249907132  0.0223916825
  133.987808  0.0249243658  0.0222338103
  134.42067  0.0248578377  0.0220771134
  134.854919  0.0247890223  0.0219224617
  135.290573  0.0247192848  0.0217692703
  135.727631  0.0246494208  0.0216172095
  136.166107  0.02457943  0.0214662626
  136.605988  0.0245093256  0.0213164259
  137.047302  0.0244379342  0.0211676862
  137.490051  0.0243660659  0.0210200306
  137.934204  0.0242941212  0.0208734684
  138.379807  0.024222089  0.0207279753
  138.826843  0.0241499823  0.0205835477
  139.275345  0.0240769666  0.0204401668
  139.725266  0.0240036733  0.0202978477
  140.176666  0.0239303168  0.0201565605
  140.629501  0.0238569211  0.0200163163
  141.083801  0.023783477  0.0198770892
  141.539581  0.0237096138  0.0197388884
  141.996826  0.0236356277  0.019601699
  142.455551  0.0235616155  0.0194655079
  142.915771  0.0234875698  0.0193303116
  143.377457  0.023413511  0.0191961005
  143.840652  0.0233396292  0.0190628581
  144.305328  0.023265779  0.0189305898
  144.771515  0.0231919084  0.0187992789
  145.239197  0.0231180284  0.0186689291
  145.708405  0.0230441336  0.0185395274
  146.179123  0.0229713749  0.0184110682
  146.651352  0.0228987914  0.0182835516
  147.125122  0.0228261873  0.0181569569
  147.600418  0.0227535702  0.0180312824
  148.07724  0.0226809457  0.0179065224
  148.555618  0.0226116292  0.0177826621
  149.035522  0.0225427132  0.0176596977
