 Au Density=19.32
 Energy(eV), Delta, Beta
  30.  0.153792322  0.549643338
  30.1696186  0.161298633  0.550281525
  30.3402004  0.167932302  0.549383402
  30.5117435  0.173706934  0.546930373
  30.6842594  0.179331213  0.54448837
  30.8577499  0.185056016  0.5420596
  31.032217  0.190761462  0.539642692
  31.207674  0.196315974  0.537236691
  31.3841228  0.204125106  0.532138646
  31.5615711  0.212311998  0.526440322
  31.7400208  0.220289662  0.520803213
  31.9194775  0.223846138  0.511526048
  32.0999527  0.227113858  0.502256095
  32.2814484  0.229962617  0.493372709
  32.4639664  0.230254874  0.486336559
  32.6475182  0.230511725  0.479400635
  32.8321075  0.230834708  0.472813755
  33.0177422  0.231394961  0.466994554
  33.2044258  0.231913581  0.461247057
  33.3921661  0.232356936  0.455569565
  33.5809631  0.232714266  0.449961126
  33.7708321  0.233034298  0.444421709
  33.9617729  0.233215123  0.438950896
  34.1537933  0.233287573  0.433547944
  34.3468971  0.233328983  0.42821154
  34.5410995  0.23320505  0.422935188
  34.736393  0.233004928  0.417721987
  34.9327927  0.232780039  0.41257298
  35.1303024  0.23235026  0.407481104
  35.3289299  0.231877327  0.402451158
  35.5286827  0.231376916  0.39748323
  35.7295647  0.230636761  0.392576247
  35.9315758  0.229884133  0.387730032
  36.1347351  0.229056284  0.38294363
  36.3390427  0.227955893  0.378217012
  36.5445023  0.226851434  0.373548716
  36.7511292  0.225597039  0.369124621
  36.9589195  0.224070087  0.365100831
  37.1678848  0.222549036  0.361120999
  37.3780365  0.221211895  0.35735178
  37.5893707  0.22005251  0.353787243
  37.8019028  0.218891248  0.350258231
  38.0156364  0.217808917  0.346764028
  38.2305756  0.216765255  0.343304485
  38.4467316  0.215717643  0.339879394
  38.6641121  0.214700997  0.336488903
  38.8827171  0.213688195  0.333132416
  39.102562  0.212671041  0.329809278
  39.3236465  0.211629972  0.326518953
  39.5459862  0.210584715  0.323261321
  39.769577  0.209525079  0.320053637
  39.9944382  0.208379686  0.317007154
  40.2205696  0.207233563  0.313989609
  40.4479713  0.206138059  0.311033994
  40.6766701  0.205176443  0.308194101
  40.9066544  0.20421055  0.305380255
  41.1379395  0.203291088  0.302592695
  41.3705368  0.202433869  0.299831092
  41.6044502  0.201570317  0.297094822
  41.8396797  0.200753376  0.294383287
  42.0762405  0.199966952  0.291696221
  42.3141441  0.199173033  0.289033741
  42.5533867  0.198446125  0.286395282
  42.7939835  0.197737157  0.283780754
  43.0359421  0.19701913  0.281190127
  43.2792702  0.196458742  0.278624058
  43.5239716  0.195906818  0.276081532
  43.7700577  0.195360288  0.273552537
  44.0175323  0.195193619  0.270833492
  44.266407  0.195006028  0.268141329
  44.5166893  0.194742933  0.265361875
  44.7683907  0.194238275  0.262150586
  45.0215111  0.19372046  0.258978188
  45.276062  0.193094239  0.255844027
  45.5320587  0.192283019  0.252747357
  45.7894974  0.191465721  0.249688208
  46.0483894  0.190579996  0.246666178
  46.3087502  0.189629361  0.243680671
  46.5705795  0.188676119  0.240731314
  46.833889  0.187677398  0.237785816
  47.0986938  0.186655477  0.234860137
  47.3649902  0.18563287  0.231970474
  47.6327934  0.184453666  0.229059607
  47.9021072  0.183242291  0.226172507
  48.1729469  0.182034895  0.223321736
  48.4453201  0.180643812  0.22050631
  48.7192307  0.179254949  0.21772632
  48.9946899  0.177835569  0.214981467
  49.2717056  0.176149234  0.212271705
  49.5502892  0.174478337  0.209596127
  49.8304482  0.172659069  0.207106173
  50.1121902  0.170435339  0.205038995
  50.3955231  0.168239772  0.202992469
  50.6804619  0.166292861  0.201182634
  50.9670105  0.164657414  0.199673042
  51.2551804  0.163037747  0.19817473
  51.5449753  0.161579892  0.196687564
  51.8364143  0.160236791  0.195211411
  52.1294975  0.158903539  0.193746373
  52.4242401  0.157635421  0.192292705
  52.7206459  0.156395063  0.190850168
  53.0187302  0.155162722  0.189418435
  53.3185005  0.153933391  0.187997028
  53.6199646  0.152711526  0.186586246
  53.9231339  0.15148744  0.185199395
  54.2280159  0.150067687  0.184087738
  54.5346184  0.148660749  0.182982758
  54.8429642  0.147354066  0.181954116
  55.1530457  0.146400854  0.181206018
  55.4648819  0.145450473  0.18046093
  55.7784805  0.14460811  0.17971909
  56.093853  0.14395453  0.17898041
  56.4110107  0.143297419  0.178244799
  56.7299576  0.142767102  0.177512124
  57.0507126  0.142354146  0.17678234
  57.3732758  0.141932547  0.17605558
  57.6976662  0.14171727  0.175331801
  58.0238914  0.141596347  0.174611017
  58.3519592  0.141460314  0.173893228
  58.6818848  0.141776979  0.17296806
  59.0136681  0.142171279  0.172001585
  59.3473358  0.142538875  0.171040401
  59.682888  0.142765239  0.169667199
  60.0203362  0.142965436  0.168293521
  60.3596878  0.143144891  0.166931018
  60.7009659  0.143315032  0.16557987
  61.0441742  0.143463343  0.16423969
  61.3893127  0.143675491  0.162910298
  61.736412  0.144080088  0.161591321
  62.0854721  0.144457564  0.160283059
  62.4365044  0.145119771  0.158693224
  62.7895203  0.146148056  0.156744972
  63.1445351  0.147135004  0.154820591
  63.5015564  0.147690147  0.152527273
  63.8605919  0.147945091  0.149999365
  64.2216644  0.148175731  0.14751333
  64.5847778  0.148180321  0.145043239
  64.9499435  0.148097292  0.14260596
  65.3171692  0.147997499  0.14020966
  65.68647  0.147644401  0.137604952
  66.057869  0.147254005  0.135020971
  66.4313583  0.146838948  0.132485524
  66.8069611  0.146147683  0.129997745
  67.1846848  0.145453393  0.127556741
  67.5645523  0.144710332  0.125161454
  67.9465637  0.143791005  0.122811235
  68.3307343  0.142874092  0.120505154
  68.7170792  0.141855508  0.11824239
  69.1056061  0.140659258  0.11602214
  69.4963303  0.139471978  0.113843605
  69.8892593  0.138210565  0.111923918
  70.2844162  0.136882454  0.110238895
  70.6818085  0.135566741  0.108579256
  71.0814514  0.134382516  0.107028127
  71.483345  0.133266121  0.10553994
  71.8875122  0.132157862  0.104072444
  72.2939682  0.131096005  0.102625586
  72.702713  0.130049482  0.101198941
  73.1137772  0.129009932  0.0997920781
  73.5271683  0.127926365  0.0984653905
  73.9428864  0.126849726  0.0971577391
  74.3609619  0.125797838  0.0958822146
  74.7814026  0.124862172  0.0947195292
  75.2042236  0.123931721  0.0935708955
  75.629425  0.123042151  0.092436254
  76.0570374  0.122245319  0.0913153812
  76.4870682  0.121450886  0.0902080834
  76.9195251  0.120745033  0.0890542716
  77.3544312  0.120148085  0.0878399685
  77.7917938  0.119549364  0.0866422355
  78.2316284  0.118849412  0.0853383392
  78.6739502  0.118082985  0.0839718282
  79.118782  0.117318764  0.0826271772
  79.5661163  0.116467863  0.0813038424
  80.0159836  0.11559175  0.0800016001
  80.4683914  0.114720635  0.0787202492
  80.9233704  0.113709092  0.0774595737
  81.3809128  0.112690359  0.0762191266
  81.8410339  0.111652799  0.0750280321
  82.303772  0.110176899  0.0743366852
  82.7691116  0.108720116  0.0736517236
  83.2370911  0.107586063  0.0731740519
  83.7077179  0.107585877  0.0734498128
  84.1809998  0.107572176  0.0737266317
  84.6569672  0.107636184  0.0733292997
  85.1356201  0.107841395  0.0717825815
  85.6169739  0.108028494  0.070268482
  86.101059  0.107998177  0.0687705204
  86.5878754  0.107772633  0.0672902688
  87.077446  0.107538544  0.0658418611
  87.5697861  0.107119888  0.0642647222
  88.0649033  0.106612764  0.0626499727
  88.5628204  0.106103547  0.0610758252
  89.0635605  0.105422013  0.0595410578
  89.5671234  0.104707479  0.0580448508
  90.0735397  0.103995718  0.0565862358
  90.5828171  0.103206553  0.0551643707
  91.0949783  0.102420591  0.0537782386
  91.6100235  0.101622671  0.052406881
  92.1279907  0.100725971  0.0509465225
  92.6488876  0.0998366252  0.0495267957
  93.1727219  0.0989046916  0.0481454395
  93.6995316  0.0978608653  0.0467992648
  94.2293091  0.0968280286  0.0454908758
  94.7620773  0.0957328677  0.0442714654
  95.2978668  0.0945598483  0.043148499
  95.8366852  0.0934010893  0.0420540161
  96.3785477  0.0922859758  0.0410412885
  96.9234772  0.0912036523  0.0400882252
  97.4714813  0.0901340097  0.0391573012
  98.0225906  0.0890947208  0.0382479876
  98.5768127  0.0880731791  0.037359789
  99.1341629  0.0870633572  0.0364922211
  99.6946716  0.0860694051  0.0356447883
  100.258347  0.0850872472  0.0348170288
  100.825211  0.0841160193  0.0340050235
  101.395279  0.0831519514  0.0331606194
  101.968567  0.0821989402  0.032337185
  102.545097  0.0812443495  0.0315295123
  103.124893  0.0802561417  0.0307254959
  103.707962  0.0792798996  0.0299420264
  104.294327  0.0782977194  0.0291784257
  104.884018  0.0772977173  0.0284341704
  105.477036  0.0763103068  0.0277088992
  106.073395  0.0753088817  0.0270022135
  106.673141  0.0742965937  0.0263136141
  107.276276  0.0732975453  0.0256425738
  107.88282  0.0722839013  0.0250359215
  108.49279  0.0712708309  0.0244655348
  109.106209  0.0702713802  0.0239081476
  109.723099  0.0693081394  0.0233874135
  110.343475  0.0683621839  0.0228827242
  110.967354  0.0674287379  0.0223889295
  111.594772  0.0665200278  0.0219058376
  112.225731  0.0656233802  0.0214331727
  112.860252  0.0647379681  0.020970704
  113.498367  0.0638611093  0.0205182023
  114.140099  0.0629957616  0.0200754628
  114.785446  0.0621389449  0.019642299
  115.434441  0.0612867512  0.0192185529
  116.087112  0.0604458302  0.0188039262
  116.743469  0.0596123487  0.0184046142
  117.403542  0.058785446  0.0180214122
  118.067345  0.0579696  0.0176461898
  118.734901  0.0571671352  0.0172824562
  119.406227  0.0563769937  0.0169285797
  120.081352  0.0555973761  0.016581947
  120.7603  0.0548274852  0.0162424184
  121.443069  0.0540676787  0.0159098469
  122.129715  0.0533180013  0.0155840851
  122.820236  0.0525760613  0.0152649684
  123.514664  0.0518438332  0.0149523839
  124.213028  0.0511214025  0.0146462014
  124.915321  0.050408572  0.0143463472
  125.621613  0.0497052707  0.0140526239
  126.331871  0.0490171649  0.0137604773
  127.046158  0.048358269  0.0134590184
  127.764473  0.0477079935  0.0131641645
  128.486847  0.0470477976  0.0128564481
  129.213318  0.0463660732  0.0125245741
  129.943893  0.0456937253  0.0122012682
  130.678604  0.0450019017  0.0118863247
  131.417465  0.0442946069  0.0115795257
  132.160507  0.0435975119  0.0112806447
  132.907745  0.0428605601  0.0110118911
  133.65921  0.0421117246  0.0107597169
  134.414917  0.0413742959  0.0105133187
  135.174911  0.0406736061  0.0103355888
  135.939194  0.0399883166  0.0101729138
  136.707794  0.0393132791  0.010012798
  137.480743  0.0386629812  0.00985519681
  138.258057  0.0380224399  0.00970007572
  139.039764  0.0373911932  0.00954739749
  139.825897  0.0367680825  0.00939712115
  140.616486  0.0361542478  0.00924921222
  141.41153  0.0355447307  0.00910363719
  142.211075  0.0349332429  0.00896036252
  143.015137  0.0343310088  0.00881934445
  143.823746  0.0337226912  0.00869676191
  144.636932  0.0331055969  0.00859514065
  145.454712  0.0324981064  0.00849470682
  146.27713  0.0319146439  0.00841510389
  147.104172  0.0313495137  0.00834879372
  147.935898  0.0307930186  0.00828300603
  148.772339  0.0302553494  0.00821773242
  149.613495  0.0297290497  0.00815297384
  150.459412  0.0292107407  0.00808872562
  151.31012  0.0286981463  0.00802499894
  152.165619  0.0281931851  0.0079617789
  153.02597  0.0276952107  0.00789905339
  153.89119  0.0271955989  0.00783679727
  154.761292  0.0267037097  0.00777503289
  155.636322  0.026212303  0.00771580217
  156.516281  0.0257042889  0.00766402902
  157.401245  0.0252043623  0.00761260092
  158.291183  0.0247162003  0.00758119998
  159.186157  0.0242419336  0.00758208893
  160.086212  0.0237751585  0.00758298999
  160.991333  0.0233225618  0.00758386776
  161.901581  0.0228828993  0.00758474134
  162.816986  0.022450164  0.00758561539
  163.737549  0.0220263321  0.00758646335
  164.66333  0.0216101017  0.00758729735
  165.59433  0.0212004408  0.00758813228
  166.530609  0.0207911581  0.00758901471
  167.472183  0.0203872584  0.00758990645
  168.419067  0.0199898072  0.00759080006
  169.371307  0.0195638314  0.00761335809
  170.328949  0.0191447828  0.00763605069
  171.291992  0.0187364593  0.00766437594
  172.260468  0.0183558967  0.00772423297
  173.234436  0.0179815087  0.0077845566
  174.213913  0.0176193975  0.00784537569
  175.198914  0.0172771253  0.00790673215
  176.189499  0.0169403087  0.00796856731
  177.185684  0.0166128874  0.00803085137
  178.187485  0.0162953567  0.00809357129
  179.194962  0.0159828458  0.00815679226
  180.208145  0.0156794358  0.00822052732
  181.227036  0.0153834345  0.00828473922
  182.251694  0.0150920907  0.00834946614
  183.28215  0.0148101859  0.00841556024
  184.318436  0.0145341568  0.00848244131
  185.36058  0.0142624574  0.00854985509
  186.4086  0.0140018258  0.0086184293
  187.46257  0.0137458118  0.00868760422
  188.522491  0.0134943584  0.00875734258
  189.588394  0.0132538006  0.00882771704
  190.660324  0.0130169401  0.00889865588
  191.738327  0.0127855586  0.00897014327
  192.822418  0.0125637762  0.00904213171
  193.912643  0.0123453597  0.00911469664
  195.009033  0.0121339234  0.0091878688
  196.111618  0.0119314808  0.00926166866
  197.220444  0.011732053  0.00933605991
  198.335526  0.0115441652  0.0094096344
  199.456909  0.0113662714  0.00948255043
  200.584656  0.0111909099  0.00955604576
  201.718765  0.0110223694  0.00962383114
  202.859283  0.0108580925  0.00968929753
  204.006256  0.0106961131  0.00975521095
  205.159714  0.0105423965  0.00982156396
  206.319702  0.01039185  0.00988836493
  207.486221  0.0102433711  0.00995562505
  208.659348  0.0101098726  0.0100234011
  209.839127  0.00997807831  0.0100916373
  211.025558  0.0098531656  0.0101599591
  212.218689  0.0097575821  0.0102266688
  213.418594  0.00966290198  0.0102938144
  214.625259  0.00956964213  0.0103478571
  215.83876  0.00947840512  0.0103718694
  217.059113  0.00938801281  0.0103959423
  218.286362  0.00929462258  0.0104200682
  219.520569  0.00919776782  0.0104442462
  220.761734  0.00910191797  0.0104684671
  222.009933  0.00900815427  0.0104927318
  223.265198  0.00891601481  0.0105170198
  224.527527  0.00882481132  0.0105413534
  225.797012  0.00873873848  0.010565808
  227.073669  0.00865471363  0.0105903354
  228.357559  0.00857147388  0.0106149185
  229.648697  0.00849944539  0.0106395315
  230.947144  0.00842877198  0.0106642013
  232.252914  0.00835953373  0.0106876297
  233.566071  0.00830110628  0.0106963385
  234.886658  0.00824293774  0.0107050547
  236.214706  0.0081844721  0.0107120229
  237.550278  0.00812448002  0.0107132765
  238.893402  0.00806480553  0.0107145337
  240.24411  0.00800538529  0.0107157622
  241.602463  0.00794618577  0.0107169477
  242.968475  0.00788730849  0.010718138
  244.342224  0.00783150364  0.0107193524
  245.72374  0.00777824502  0.0107205892
  247.113068  0.00772519736  0.0107218297
  248.510254  0.00768133486  0.0107230702
  249.915329  0.00764133083  0.0107243061
  251.328369  0.0076012616  0.0107255494
  252.749374  0.00756444084  0.0107120546
  254.178436  0.00752805592  0.0106960237
  255.615555  0.00749152526  0.0106800077
  257.060822  0.00745265745  0.0106622847
  258.514252  0.00741371932  0.0106445942
  259.975891  0.00737510901  0.0106269307
  261.445801  0.00733845076  0.0106092943
  262.924011  0.00730168819  0.0105916867
  264.410583  0.00726641808  0.0105741117
  265.905548  0.00723444764  0.0105565768
  267.408997  0.00720227836  0.0105390651
  268.920929  0.00717452401  0.0105215833
  270.441437  0.00715164002  0.0105041238
  271.97049  0.00712836441  0.0104866875
  273.50824  0.0071139005  0.0104594892
  275.054657  0.00710435305  0.0104264459
  276.609833  0.0070941234  0.0103935059
  278.173767  0.00707752258  0.0103502451
  279.746582  0.00705879275  0.0103042014
  281.328278  0.007039594  0.0102583636
  282.918915  0.00701429974  0.0102127343
  284.518555  0.00698827626  0.0101673109
  286.127228  0.00696193986  0.0101220869
  287.744995  0.00693515269  0.0100770472
  289.371887  0.00690809265  0.0100322096
  291.008026  0.00688096182  0.0099875778
  292.653381  0.00685418909  0.00994316582
  294.308044  0.00682715094  0.00989895221
  295.972076  0.00680055469  0.00985492393
  297.645508  0.00677475752  0.00981108099
  299.3284  0.00674868375  0.0097674299
  301.020813  0.00672388263  0.00972398184
  302.722809  0.0067000431  0.00968073308
  304.434387  0.0066758953  0.0096376799
  306.15567  0.0066553494  0.00959480461
  307.886688  0.00663605705  0.00955211557
  309.627472  0.00661635678  0.00950961001
  311.378113  0.00659909518  0.00945985224
  313.138641  0.0065818578  0.00940911379
  314.909149  0.00656415988  0.0093586212
  316.689667  0.00654447777  0.00930600893
  318.480225  0.00652441336  0.00925369374
  320.280945  0.00650386419  0.00920166727
  322.091797  0.00648240931  0.00914993603
  323.912903  0.00646061683  0.0090984907
  325.744324  0.00643891143  0.00904733501
  327.58609  0.00641775271  0.00899646152
  329.438263  0.00639625918  0.0089458758
  331.300903  0.00637537148  0.00889558345
  333.174103  0.00635516969  0.00884557795
  335.057861  0.00633462006  0.00879585557
  336.952271  0.00631550839  0.00874641072
  338.857452  0.00629706774  0.00869723875
  340.773346  0.00627824804  0.00864834618
  342.700073  0.0062623336  0.00859971158
  344.637695  0.00624689227  0.00855134986
  346.586304  0.00623100996  0.0085032573
  348.545929  0.00622386439  0.00845506322
  350.516602  0.00621671416  0.00840711594
  352.498413  0.00620885147  0.00835782569
  354.491486  0.00619946653  0.0082926359
  356.495758  0.00618951488  0.00822795741
  358.511414  0.00617800187  0.00816378463
  360.538422  0.00616291165  0.00810011942
  362.576935  0.00614738138  0.00803694688
  364.626923  0.00613057055  0.0079742698
  366.688568  0.00611208705  0.00791207235
  368.76181  0.00609324966  0.00785036385
  370.846802  0.0060739168  0.00778913638
  372.943573  0.00605413364  0.00772839086
  375.052216  0.00603403011  0.00766811613
  377.17276  0.00601387536  0.0076083173
  379.305298  0.00599352084  0.00754898973
  381.44989  0.00597286224  0.0074901199
  383.606628  0.00595273171  0.00743170548
  385.775543  0.00593243167  0.00737374742
  387.956757  0.00591186807  0.0073162429
  390.150269  0.00589267118  0.00725917844
  392.356171  0.00587316509  0.00720256101
  394.574554  0.00585402083  0.00714638503
  396.805481  0.00583778461  0.00709064817
  399.049042  0.0058211768  0.00703534391
  401.305267  0.00580518646  0.00697798748
  403.57428  0.0057908413  0.00691595674
  405.856079  0.00577608915  0.00685447967
  408.150787  0.00575939473  0.00679178722
  410.458496  0.00574068027  0.00672776112
  412.779236  0.00572166126  0.00666433945
  415.113098  0.00570057007  0.00660150545
  417.460144  0.00567821274  0.0065392605
  419.820465  0.00565564027  0.00647760229
  422.194153  0.00563232042  0.00641652895
  424.581238  0.00560866855  0.00635603489
  426.981842  0.00558483927  0.00629610941
  429.395996  0.00556060346  0.00623674644
  431.823792  0.00553619768  0.00617794506
  434.26535  0.00551164942  0.00611969596
  436.720703  0.005487049  0.00606199121
  439.189941  0.00546230702  0.00600483129
  441.673126  0.00543773221  0.00594821433
  444.170349  0.00541391782  0.00589213846
  446.681702  0.0053899535  0.00583659112
  449.207245  0.00536632538  0.00578065217
  451.74707  0.00534324907  0.0057239146
  454.30127  0.00532001536  0.00566773256
  456.869873  0.00529567664  0.00561092142
  459.453064  0.00527046574  0.00555375218
  462.050812  0.00524515519  0.00549716689
  464.663269  0.00521898922  0.00544115994
  467.290466  0.00519244652  0.00538572576
  469.932556  0.00516584236  0.00533085549
  472.589539  0.00513873016  0.00527654635
  475.261566  0.00511150435  0.00522279134
