 Mo Density=10.22
 Energy(eV), Delta, Beta
  30.  0.378227115  0.144919187
  30.1696186  0.368969351  0.140111089
  30.3402004  0.359770328  0.135825649
  30.5117435  0.350375801  0.132937133
  30.6842594  0.341146469  0.130109981
  30.8577499  0.33221826  0.127446935
  31.032217  0.323678374  0.125010267
  31.207674  0.315287948  0.122620128
  31.3841228  0.306818485  0.120275684
  31.5615711  0.298298359  0.117976077
  31.7400208  0.289930731  0.115720436
  31.9194775  0.281329215  0.114309758
  32.0999527  0.272705913  0.113288641
  32.2814484  0.264240801  0.112276636
  32.4639664  0.256409883  0.111811832
  32.6475182  0.248814225  0.111454785
  32.8321075  0.241356701  0.111098893
  33.0177422  0.233955055  0.110744163
  33.2044258  0.226688251  0.110390566
  33.3921661  0.219502896  0.110129938
  33.5809631  0.212143764  0.110417038
  33.7708321  0.204921961  0.110704832
  33.9617729  0.197951391  0.111097567
  34.1537933  0.191381603  0.11173863
  34.3468971  0.184934452  0.112383306
  34.5410995  0.178596154  0.113031581
  34.736393  0.172363728  0.113683164
  34.9327927  0.166248411  0.114338577
  35.1303024  0.160024598  0.114998043
  35.3289299  0.153775677  0.115661472
  35.5286827  0.147646785  0.116328701
  35.7295647  0.140875459  0.117212214
  35.9315758  0.134001479  0.118169695
  36.1347351  0.12726368  0.119135059
  36.3390427  0.120534465  0.121503785
  36.5445023  0.113928609  0.124053009
  36.7511292  0.107490301  0.126655668
  36.9589195  0.101642616  0.129312679
  37.1678848  0.0959125757  0.132025436
  37.3780365  0.0901565477  0.134795129
  37.5893707  0.0840303525  0.137623176
  37.8019028  0.0780301839  0.140510544
  38.0156364  0.0719421059  0.143458307
  38.2305756  0.0656355545  0.146467492
  38.4467316  0.0594611429  0.149539962
  38.6641121  0.0520562641  0.154063135
  38.8827171  0.0436244495  0.159992352
  39.102562  0.0353751667  0.166149721
  39.3236465  0.0305071995  0.174959987
  39.5459862  0.0271915086  0.185412437
  39.769577  0.0239464659  0.196488813
  39.9944382  0.0237577446  0.207660586
  40.2205696  0.0241316166  0.21935311
  40.4479713  0.0244941041  0.23170346
  40.6766701  0.0271478724  0.238036498
  40.9066544  0.029751353  0.244506001
  41.1379395  0.0325185917  0.251151502
  41.3705368  0.0364983119  0.25797829
  41.6044502  0.0403846949  0.264990747
  41.8396797  0.0445992425  0.271378368
  42.0762405  0.0496696606  0.276006818
  42.3141441  0.0546212196  0.280714899
  42.5533867  0.0605104193  0.285457671
  42.7939835  0.0675012767  0.290226549
  43.0359421  0.0743277371  0.295075059
  43.2792702  0.0817337856  0.296784788
  43.5239716  0.0894307122  0.296461999
  43.7700577  0.0969447568  0.296139508
  44.0175323  0.102607407  0.294991195
  44.266407  0.107625067  0.293595999
  44.5166893  0.112517565  0.29220742
  44.7683907  0.116844974  0.290825814
  45.0215111  0.121023148  0.289450765
  45.276062  0.125088811  0.288082331
  45.5320587  0.128996909  0.286720216
  45.7894974  0.132801667  0.285364598
  46.0483894  0.136502668  0.283792228
  46.3087502  0.14009653  0.281478643
  46.5705795  0.143592641  0.279183924
  46.833889  0.146905616  0.276796758
  47.0986938  0.149987862  0.274252176
  47.3649902  0.152982339  0.271731019
  47.6327934  0.155605346  0.269233197
  47.9021072  0.157906398  0.266758412
  48.1729469  0.160136461  0.264306366
  48.4453201  0.162151128  0.261876583
  48.7192307  0.16403608  0.259469002
  48.9946899  0.165858388  0.257083654
  49.2717056  0.167683452  0.254978657
  49.5502892  0.169458359  0.252937883
  49.8304482  0.17117238  0.250913441
  50.1121902  0.173164412  0.24902986
  50.3955231  0.175090596  0.247160584
  50.6804619  0.177083835  0.245305181
  50.9670105  0.179730192  0.243463174
  51.2551804  0.182294935  0.241634995
  51.5449753  0.184906438  0.239820719
  51.8364143  0.187718466  0.238020226
  52.1294975  0.190444216  0.236233279
  52.4242401  0.193319649  0.233418465
  52.7206459  0.196376503  0.229444429
  53.0187302  0.199340701  0.225537986
  53.3185005  0.201846883  0.221478462
  53.6199646  0.204045787  0.217357814
  53.9231339  0.206170008  0.213313833
  54.2280159  0.207912311  0.209295884
  54.5346184  0.209498674  0.205339313
  54.8429642  0.211023062  0.201457545
  55.1530457  0.212161928  0.196985662
  55.4648819  0.213222414  0.192560196
  55.7784805  0.214242652  0.188234195
  56.093853  0.215330735  0.184005663
  56.4110107  0.216367483  0.17987217
  56.7299576  0.217335135  0.175831482
  57.0507126  0.218192592  0.171881273
  57.3732758  0.219003543  0.168019876
  57.6976662  0.219693735  0.163644537
  58.0238914  0.220223323  0.158462197
  58.3519592  0.220713437  0.153443947
  58.6818848  0.220639229  0.148189083
  59.0136681  0.220098972  0.142791539
  59.3473358  0.21954301  0.137590587
  59.682888  0.217848465  0.132579133
  60.0203362  0.215678811  0.127750218
  60.3596878  0.213530436  0.123097494
  60.7009659  0.212275594  0.124744803
  61.0441742  0.216546848  0.11834272
  61.3893127  0.210855916  0.110244028
  61.736412  0.210153729  0.111870833
  62.0854721  0.208109438  0.102913357
  62.4365044  0.20439823  0.103078604
  62.7895203  0.206798777  0.101153411
  63.1445351  0.204123318  0.0932617038
  63.5015564  0.200509325  0.0921354741
  63.8605919  0.200211227  0.0890293643
  64.2216644  0.196026489  0.0807752535
  64.5847778  0.196376264  0.0870781168
  64.9499435  0.19595322  0.0772715285
  65.3171692  0.191521212  0.074512817
  65.68647  0.189199403  0.0739090443
  66.057869  0.188354582  0.0705361664
  66.4313583  0.186735958  0.0682537109
  66.8069611  0.185233265  0.0655387193
  67.1846848  0.183095977  0.0618409924
  67.5645523  0.181091815  0.0586639643
  67.9465637  0.179437637  0.0557788499
  68.3307343  0.176906571  0.0529189482
  68.7170792  0.174303979  0.049766466
  69.1056061  0.171309248  0.0474210903
  69.4963303  0.168625638  0.0448244512
  69.8892593  0.165588483  0.0432976931
  70.2844162  0.16330944  0.0421709716
  70.6818085  0.161328912  0.0395328142
  71.0814514  0.158636689  0.0375711285
  71.483345  0.155281767  0.0356877707
  71.8875122  0.152962923  0.0349861905
  72.2939682  0.150793374  0.0335048586
  72.702713  0.148265362  0.0322590694
  73.1137772  0.146213666  0.0308239069
  73.5271683  0.143882155  0.0298351087
  73.9428864  0.141802192  0.0284879617
  74.3609619  0.139542207  0.027610939
  74.7814026  0.137552887  0.0265202411
  75.2042236  0.135634586  0.0252633318
  75.629425  0.133746132  0.0241546277
  76.0570374  0.131865561  0.0230784081
  76.4870682  0.129898533  0.0219501033
  76.9195251  0.127959028  0.0208769646
  77.3544312  0.125965074  0.0198274422
  77.7917938  0.123959139  0.0188673269
  78.2316284  0.121922202  0.0179147292
  78.6739502  0.119978972  0.0170491822
  79.118782  0.118000761  0.016191883
  79.5661163  0.116024993  0.0153707229
  80.0159836  0.114110261  0.0146510703
  80.4683914  0.112156838  0.0139683476
  80.9233704  0.110232845  0.013317436
  81.3809128  0.108382091  0.0127459401
  81.8410339  0.106547661  0.0121897859
  82.303772  0.104761913  0.011697609
  82.7691116  0.102939107  0.0112179639
  83.2370911  0.101195365  0.0108131971
  83.7077179  0.0994777754  0.0104230363
  84.1809998  0.0978516415  0.0100469375
  84.6569672  0.096350193  0.0097257169
  85.1356201  0.0947672501  0.00930903666
  85.6169739  0.0931223631  0.00895146746
  86.101059  0.091551058  0.00869401451
  86.5878754  0.0900444016  0.0084404964
  87.077446  0.0885971263  0.00822881982
  87.5697861  0.0871058479  0.00798070338
  88.0649033  0.0857385769  0.00778071722
  88.5628204  0.0843910277  0.00758574344
  89.0635605  0.0830677152  0.00739565585
  89.5671234  0.0817655995  0.00718691386
  90.0735397  0.080474399  0.00697663845
  90.5828171  0.0791872814  0.00680730073
  91.0949783  0.0779338032  0.00664927205
  91.6100235  0.076730594  0.00649963832
  92.1279907  0.0755326673  0.00633053202
  92.6488876  0.0743602663  0.00617625657
  93.1727219  0.0731900036  0.00602900982
  93.6995316  0.0720367953  0.00591723667
  94.2293091  0.0709079951  0.00579071557
  94.7620773  0.069810614  0.00566043472
  95.2978668  0.0687158927  0.0055624512
  95.8366852  0.0676376298  0.00546494499
  96.3785477  0.0665779039  0.00537771173
  96.9234772  0.0655314103  0.00530195283
  97.4714813  0.0645351857  0.0052409065
  98.0225906  0.0635414794  0.0051735132
  98.5768127  0.0625615865  0.00512400642
  99.1341629  0.0615956895  0.00507497322
  99.6946716  0.0606549606  0.00501532713
  100.258347  0.0597358346  0.00497625861
  100.825211  0.0588355325  0.00498540746
  101.395279  0.0579591542  0.00491466373
  101.968567  0.0570696145  0.00486152247
  102.545097  0.0562104732  0.00491712149
  103.124893  0.0554116406  0.00486511597
  103.707962  0.0546201169  0.00487025781
  104.294327  0.0538267531  0.00480913883
  104.884018  0.0530380756  0.00480270665
  105.477036  0.0522583798  0.0047765905
  106.073395  0.0515109412  0.00477405591
  106.673141  0.050790213  0.00476836273
  107.276276  0.0500776768  0.00472902926
  107.88282  0.0493503809  0.0046839416
  108.49279  0.048633635  0.00471024727
  109.106209  0.0479842648  0.0046917852
  109.723099  0.0473198742  0.00464311894
  110.343475  0.0466404483  0.0046177241
  110.967354  0.0459703133  0.00459246896
  111.594772  0.0453175642  0.00456282357
  112.225731  0.0446783677  0.00452930154
  112.860252  0.0440337919  0.00451912032
  113.498367  0.0433851816  0.00449757138
  114.140099  0.0427882709  0.00451638317
  114.785446  0.0421878248  0.00450534606
  115.434441  0.0415970758  0.00453239307
  116.087112  0.0410412624  0.00450731581
  116.743469  0.0404808521  0.00449084165
  117.403542  0.0399220325  0.00448992522
  118.067345  0.0393786132  0.00450326828
  118.734901  0.0388494395  0.00447800849
  119.406227  0.0383207239  0.00447742362
  120.081352  0.0378598943  0.0044845636
  120.7603  0.037378937  0.00444428809
  121.443069  0.0369040184  0.00440437533
  122.129715  0.0363925695  0.00431617582
  122.820236  0.0358634144  0.00427875342
  123.514664  0.035359662  0.00425333157
  124.213028  0.0348635241  0.00423717452
  124.915321  0.0343617946  0.00423257845
  125.621613  0.0338858515  0.00420572283
  126.331871  0.0334364101  0.00419974839
  127.046158  0.0330126397  0.00422102492
  127.764473  0.0325941704  0.00424240949
  128.486847  0.0321616121  0.00417927466
  129.213318  0.0317136943  0.00410239678
  129.943893  0.0312439259  0.00408715243
  130.678604  0.0308187846  0.00410646154
  131.417465  0.0304103121  0.00409349892
  132.160507  0.0300090667  0.0040573203
  132.907745  0.0295981374  0.00403474364
  133.65921  0.0291926526  0.00401229225
  134.414917  0.0287856273  0.0039755078
  135.174911  0.0283830352  0.00394225726
  135.939194  0.0280011501  0.00395946857
  136.707794  0.0275998954  0.00393580785
  137.480743  0.02720204  0.00390880182
  138.258057  0.0268230923  0.00389824389
  139.039764  0.0264757983  0.00391820865
  139.825897  0.0261280425  0.00389266433
  140.616486  0.0257572737  0.0038295493
  141.41153  0.0253817085  0.00382406334
  142.211075  0.0250212234  0.00385787152
  143.015137  0.0246979613  0.00382496603
  143.823746  0.0243537426  0.00383916055
  144.636932  0.0240252875  0.00381974946
  145.454712  0.0237041991  0.00379119208
  146.27713  0.0233793817  0.00377859292
  147.104172  0.0230472069  0.0037945793
  147.935898  0.0227452554  0.00379246054
  148.772339  0.0224459767  0.00376926363
  149.613495  0.0221433155  0.00376113411
  150.459412  0.0218419898  0.00375922886
  151.31012  0.0215518288  0.00374832819
  152.165619  0.0212758631  0.00372535246
  153.02597  0.0209952407  0.00371631561
  153.89119  0.0207234565  0.00368015608
  154.761292  0.0204503089  0.00366224744
  155.636322  0.0201799944  0.00364698516
  156.516281  0.0199105013  0.00362199126
  157.401245  0.0196426399  0.00359030976
  158.291183  0.0193782896  0.00355890673
  159.186157  0.0191141795  0.00352778262
  160.086212  0.018851852  0.00349601777
  160.991333  0.0185876656  0.00345596857
  161.901581  0.0183184873  0.00344229001
  162.816986  0.018076323  0.00339880493
  163.737549  0.0178145841  0.00337051926
  164.66333  0.0175501686  0.00334698102
  165.59433  0.0172894448  0.00332360761
  166.530609  0.0170319006  0.0033003909
  167.472183  0.0167831518  0.00326328608
  168.419067  0.0165393185  0.0032445481
  169.371307  0.0163036361  0.00323920092
  170.328949  0.016076535  0.00320181949
  171.291992  0.0158350896  0.00318356301
  172.260468  0.0156023465  0.00315812114
  173.234436  0.0153808417  0.0031186128
  174.213913  0.0151426876  0.00309638819
  175.198914  0.0149113787  0.00306827505
  176.189499  0.0146915121  0.00302441744
  177.185684  0.0144524816  0.00301326532
  178.187485  0.0142169734  0.00300215278
  179.194962  0.0139917172  0.00298514613
  180.208145  0.0137667507  0.0029436294
  181.227036  0.0135444263  0.00291200029
  182.251694  0.0133234868  0.00290706917
  183.28215  0.0131106433  0.00288987206
  184.318436  0.0129078152  0.00287354039
  185.36058  0.0126886358  0.00282682688
  186.4086  0.0124402195  0.00280242623
  187.46257  0.0122156553  0.00283066719
  188.522491  0.012033172  0.00286227721
  189.588394  0.0118532674  0.00285108504
  190.660324  0.0116771599  0.00283421041
  191.738327  0.0114940302  0.00280276942
  192.822418  0.0113097196  0.00278051198
  193.912643  0.0111151207  0.00274802302
  195.009033  0.0109208832  0.00271321833
  196.111618  0.0107266344  0.00269713765
  197.220444  0.0105329705  0.00267950282
  198.335526  0.0103327241  0.00265537156
  199.456909  0.0101356506  0.00263145752
  200.584656  0.00995856617  0.00262387795
  201.718765  0.00977658015  0.00260118162
  202.859283  0.00958415773  0.00256148796
  204.006256  0.00940227136  0.00255161291
  205.159714  0.0092130648  0.00251660892
  206.319702  0.00903972704  0.00250195153
  207.486221  0.00884136744  0.00247953157
  208.659348  0.00864631869  0.00245731254
  209.839127  0.0084542362  0.00243529282
  211.025558  0.00826498773  0.00241347076
  212.218689  0.00807765033  0.00239314116
  213.418594  0.0078878561  0.00237873779
  214.625259  0.00770130381  0.00236442173
  215.83876  0.00750829093  0.0023359335
  217.059113  0.00731143169  0.00232159416
  218.286362  0.0071165869  0.00230750022
  219.520569  0.00692188554  0.00228400039
  220.761734  0.00672311429  0.00226635486
  222.009933  0.00652304711  0.00225223601
  223.265198  0.00630511669  0.002224155
  224.527527  0.00607912568  0.00220619934
  225.797012  0.00584381167  0.00219904445
  227.073669  0.00555146486  0.00218457519
  228.357559  0.00536322687  0.00233273394
  229.648697  0.00516807195  0.00230092462
  230.947144  0.00494132563  0.0023795059
  232.252914  0.00477449875  0.00240094168
  233.566071  0.00456870673  0.00241427193
  234.886658  0.0043596467  0.00243672333
  236.214706  0.00413208595  0.00243971986
  237.550278  0.0038569069  0.00248551695
  238.893402  0.00358118908  0.00257781311
  240.24411  0.00332082692  0.00268867705
  241.602463  0.0031232757  0.00283756829
  242.968475  0.00293153641  0.0029688431
  244.342224  0.0028052046  0.00312844105
  245.72374  0.00263298885  0.00318158441
  247.113068  0.00241856999  0.00321590714
  248.510254  0.0022204374  0.00326483883
  249.915329  0.00202645827  0.00331450696
  251.328369  0.00174929108  0.00338860252
  252.749374  0.00147355744  0.00354565331
  254.178436  0.0011989437  0.00374127016
  255.615555  0.00094325043  0.00397610618
  257.060822  0.000711628993  0.00425624102
  258.514252  0.000506196404  0.00456568599
  259.975891  0.000343514985  0.00491649052
  261.445801  0.000246389594  0.0052627027
  262.924011  0.000174636647  0.00565847894
  264.410583  0.000240635738  0.00601001736
  265.905548  0.000311700918  0.00637823297
  267.408997  0.000442694785  0.00666883076
  268.920929  0.000573744997  0.00688105915
  270.441437  0.000738839211  0.00704684528
  271.97049  0.000902157568  0.00721362419
  273.50824  0.00106247456  0.00738438964
  275.054657  0.0012463457  0.00751982816
  276.609833  0.00143318728  0.00760196522
  278.173767  0.00160566356  0.00762158679
  279.746582  0.00172474748  0.00759784784
  281.328278  0.00183105667  0.0075778868
  282.918915  0.00189726276  0.00757213868
  284.518555  0.00194636616  0.00757948961
  286.127228  0.00199331506  0.00758755254
  287.744995  0.0020383799  0.00759562152
  289.371887  0.00207716785  0.00760367699
  291.008026  0.00211482868  0.00761174038
  292.653381  0.00214615255  0.00761981448
  294.308044  0.00216157851  0.00762789743
  295.972076  0.00217906223  0.00765515119
  297.645508  0.002197769  0.00769626163
  299.3284  0.00222344603  0.00772082852
  301.020813  0.00225857832  0.00777750369
  302.722809  0.00224427693  0.00778959319
  304.434387  0.00234985305  0.0078931991
  306.15567  0.00239669834  0.00790401828
  307.886688  0.00243302272  0.00797004905
  309.627472  0.00252925977  0.00803064089
  311.378113  0.00264659314  0.00805773493
  313.138641  0.00275108614  0.00806771871
  314.909149  0.00285882037  0.00805915985
  316.689667  0.00296935206  0.00803303812
  318.480225  0.00307704601  0.00800700393
  320.280945  0.0031881982  0.00796506088
  322.091797  0.003298986  0.00791687705
  323.912903  0.00337092509  0.00782231893
  325.744324  0.00342215248  0.0077313208
  327.58609  0.00346320774  0.00764590874
  329.438263  0.00348287192  0.00756597705
  331.300903  0.00349900522  0.0074916333
  333.174103  0.00350067928  0.00744255213
  335.057861  0.00350306579  0.00739491312
  336.952271  0.00353895733  0.00736713083
  338.857452  0.0035738498  0.00731974235
  340.773346  0.0036115374  0.00726743974
  342.700073  0.00364792347  0.00721550966
  344.637695  0.00367273949  0.00713056605
  346.586304  0.00365657359  0.007074703
  348.545929  0.00364030851  0.00701927859
  350.516602  0.00366271893  0.00696940301
  352.498413  0.00367049593  0.00693419063
  354.491486  0.0036813647  0.00689054932
  356.495758  0.00370282889  0.00682104751
  358.511414  0.00372334779  0.0067522428
  360.538422  0.00373442564  0.0066841403
  362.576935  0.0037321609  0.00661672931
  364.626923  0.00371618383  0.00656810962
  366.688568  0.00369666563  0.00652454328
  368.76181  0.00370077649  0.00646786485
  370.846802  0.00365938316  0.00634446461
  372.943573  0.0036114424  0.00629933784
  375.052216  0.00357091031  0.00627174042
  377.17276  0.00347840902  0.00625908654
  379.305298  0.00345408521  0.00623847125
  381.44989  0.00335037732  0.00626681652
  383.606628  0.00333330524  0.00625457056
  385.775543  0.00333968457  0.00625853427
  387.956757  0.00318562193  0.00628109556
  390.150269  0.00294477143  0.00637377519
  392.356171  0.00255593215  0.00694516301
  394.574554  0.00372316339  0.00811136421
  396.805481  0.00462170085  0.0069573652
  399.049042  0.0043732971  0.00637581525
  401.305267  0.00410008105  0.00623765308
  403.57428  0.00399880297  0.00632438855
  405.856079  0.00413913233  0.00627278816
  408.150787  0.00407816097  0.00613512099
  410.458496  0.00395557005  0.00636882801
  412.779236  0.00461518392  0.0064045582
  415.113098  0.00458799629  0.00584629178
  417.460144  0.00442822278  0.00564818131
  419.820465  0.00424986426  0.00559384003
  422.194153  0.00428218022  0.00561651681
  424.581238  0.00428815326  0.0055104061
  426.981842  0.00426308811  0.00541609013
  429.395996  0.00416839635  0.00536905508
  431.823792  0.00413962035  0.00532925688
  434.26535  0.00411068695  0.00531074079
  436.720703  0.00409509614  0.00529451808
  439.189941  0.00407700054  0.00531365164
  441.673126  0.00414500292  0.00529724173
  444.170349  0.00421291916  0.00527907675
  446.681702  0.00427333033  0.00522910431
  449.207245  0.00433541369  0.005160389
  451.74707  0.00439108256  0.00501513761
  454.30127  0.00440688524  0.00488336617
  456.869873  0.00436475407  0.00481070485
  459.453064  0.00435447833  0.0047239149
  462.050812  0.00431940192  0.0046341517
