 Ru Density=12.41
 Energy(eV), Delta, Beta
  30.  0.40791294  0.38811776
  30.1696186  0.404954344  0.381119192
  30.3402004  0.401890278  0.374180555
  30.5117435  0.398722976  0.367302775
  30.6842594  0.395576209  0.360551208
  30.8577499  0.3922683  0.353465796
  31.032217  0.388888299  0.346278787
  31.207674  0.385534734  0.339237779
  31.3841228  0.381705105  0.332339734
  31.5615711  0.37779215  0.325581878
  31.7400208  0.373918921  0.318961442
  31.9194775  0.369675666  0.31247589
  32.0999527  0.365463018  0.306121916
  32.2814484  0.36125648  0.299897254
  32.4639664  0.356772751  0.293799311
  32.6475182  0.352344066  0.287825257
  32.8321075  0.347876996  0.281972647
  33.0177422  0.343213797  0.276238918
  33.2044258  0.338611394  0.270621806
  33.3921661  0.33392784  0.265119821
  33.5809631  0.329115152  0.259731025
  33.7708321  0.324368298  0.254451692
  33.9617729  0.319494426  0.249282449
  34.1537933  0.314549148  0.244220227
  34.3468971  0.30967468  0.239260867
  34.5410995  0.304612666  0.234402269
  34.736393  0.299531549  0.229642689
  34.9327927  0.294525981  0.224979639
  35.1303024  0.289280027  0.220421344
  35.3289299  0.284073889  0.215956643
  35.5286827  0.278933465  0.211583406
  35.7295647  0.273510724  0.207324624
  35.9315758  0.268174708  0.203151733
  36.1347351  0.262864113  0.19906272
  36.3390427  0.257391751  0.19505623
  36.5445023  0.252009034  0.191130385
  36.7511292  0.246544793  0.187238827
  36.9589195  0.240855396  0.18334423
  37.1678848  0.235262617  0.179530665
  37.3780365  0.229418054  0.175739259
  37.5893707  0.223333508  0.171972275
  37.8019028  0.217356548  0.168286026
  38.0156364  0.210957721  0.164708376
  38.2305756  0.204401001  0.16122207
  38.4467316  0.197964564  0.157809481
  38.6641121  0.190905303  0.154558927
  38.8827171  0.183807194  0.151395977
  39.102562  0.176844224  0.148297772
  39.3236465  0.168840349  0.145262599
  39.5459862  0.160949767  0.14228949
  39.769577  0.153045341  0.139377385
  39.9944382  0.144043356  0.136525169
  40.2205696  0.133184701  0.134276509
  40.4479713  0.122463584  0.132088497
  40.6766701  0.11115469  0.130724892
  40.9066544  0.09881863  0.130617023
  41.1379395  0.0853239074  0.132342398
  41.3705368  0.0717850178  0.136007249
  41.6044502  0.0600097142  0.141740739
  41.8396797  0.0486839265  0.149307713
  42.0762405  0.0376050211  0.157278195
  42.3141441  0.0264626164  0.165674865
  42.5533867  0.0146979336  0.174518406
  42.7939835  0.00319326972  0.183834493
  43.0359421 -0.00127731881  0.206729934
  43.2792702 -0.00181915972  0.228163347
  43.5239716  0.000906844682  0.240910396
  43.7700577  0.00360530172  0.254329294
  44.0175323  0.00939372182  0.264456868
  44.266407  0.0153080383  0.273948371
  44.5166893  0.0218373332  0.280627817
  44.7683907  0.0282170996  0.286611646
  45.0215111  0.0344492234  0.291353643
  45.276062  0.0405009687  0.296006322
  45.5320587  0.0458023213  0.297909319
  45.7894974  0.0505579598  0.29982397
  46.0483894  0.0538543984  0.301749021
  46.3087502  0.0571296066  0.304561436
  46.5705795  0.0603397898  0.307630211
  46.833889  0.0640930831  0.311123312
  47.0986938  0.0686234608  0.315219402
  47.3649902  0.0742800832  0.318155676
  47.6327934  0.0799768865  0.320928246
  47.9021072  0.0863295645  0.322185695
  48.1729469  0.0925411955  0.323342681
  48.4453201  0.0987731069  0.322876781
  48.7192307  0.10485363  0.322411567
  48.9946899  0.110749371  0.321945399
  49.2717056  0.115889817  0.320016026
  49.5502892  0.120868176  0.318087101
  49.8304482  0.12560381  0.316170365
  50.1121902  0.130069554  0.314010501
  50.3955231  0.133841157  0.310869813
  50.6804619  0.137131318  0.308108658
  50.9670105  0.140030012  0.305674493
  51.2551804  0.142712757  0.303572655
  51.5449753  0.145317763  0.30148533
  51.8364143  0.147935718  0.299434483
  52.1294975  0.150710449  0.297455847
  52.4242401  0.153404355  0.295490235
  52.7206459  0.15617609  0.293467641
  53.0187302  0.159073964  0.29136622
  53.3185005  0.161887228  0.289279908
  53.6199646  0.164776474  0.287085444
  53.9231339  0.167693213  0.284820259
  54.2280159  0.170523852  0.282572895
  54.5346184  0.173381448  0.279925138
  54.8429642  0.176192597  0.277154237
  55.1530457  0.178919151  0.274410903
  55.4648819  0.181566298  0.271382034
  55.7784805  0.184132054  0.268348873
  56.093853  0.18663156  0.26532796
  56.4110107  0.189345419  0.261892259
  56.7299576  0.191974968  0.258501053
  57.0507126  0.194495484  0.254971474
  57.3732758  0.196831644  0.250771344
  57.6976662  0.199090928  0.246640339
  58.0238914  0.201018229  0.242522568
  58.3519592  0.202414438  0.238375276
  58.6818848  0.203754023  0.23429887
  59.0136681  0.20496726  0.230292022
  59.3473358  0.206059769  0.226353571
  59.682888  0.207102075  0.222482458
  60.0203362  0.208039656  0.21867764
  60.3596878  0.208902031  0.214938089
  60.7009659  0.209719136  0.21126233
  61.0441742  0.210408986  0.207117662
  61.3893127  0.211038664  0.20293735
  61.736412  0.211627722  0.198841378
  62.0854721  0.211868852  0.194823071
  62.4365044  0.212068781  0.190885872
  62.7895203  0.21223098  0.187037379
  63.1445351  0.212317064  0.183328941
  63.5015564  0.212374538  0.179694071
  63.8605919  0.212475881  0.175999194
  64.2216644  0.212731481  0.17204681
  64.5847778  0.212954655  0.168183252
  64.9499435  0.212960616  0.164283067
  65.3171692  0.212700129  0.16031602
  65.68647  0.21241872  0.156444758
  66.057869  0.211964235  0.152527422
  66.4313583  0.211387396  0.148612842
  66.8069611  0.210796818  0.144798756
  67.1846848  0.21000357  0.141028047
  67.5645523  0.209136501  0.137336805
  67.9465637  0.208262533  0.133742228
  68.3307343  0.207320258  0.130227685
  68.7170792  0.206365898  0.126803935
  69.1056061  0.205406055  0.123446003
  69.4963303  0.204426631  0.119733669
  69.8892593  0.203443363  0.11613299
  70.2844162  0.202337578  0.112633005
  70.6818085  0.200774074  0.109209917
  71.0814514  0.199220151  0.10589084
  71.483345  0.197665468  0.10271915
  71.8875122  0.196102172  0.0997230783
  72.2939682  0.194549069  0.0968143716
  72.702713  0.193031058  0.0938083753
  73.1137772  0.191545874  0.0907285139
  73.5271683  0.190069735  0.0877497494
  73.9428864  0.188421145  0.0848434344
  74.3609619  0.186696187  0.0820208639
  74.7814026  0.184986219  0.0792922154
  75.2042236  0.183163851  0.076549165
  75.629425  0.181331798  0.0738793164
  76.0570374  0.179517776  0.0713024512
  76.4870682  0.177583069  0.068807818
  76.9195251  0.175665721  0.066400297
  77.3544312  0.173755437  0.0640620142
  77.7917938  0.171775773  0.0617093444
  78.2316284  0.16981867  0.0594430827
  78.6739502  0.167863935  0.0572600923
  79.118782  0.165882096  0.0551573709
  79.5661163  0.163923621  0.0531318821
  80.0159836  0.161964193  0.0511350036
  80.4683914  0.159997612  0.049156785
  80.9233704  0.158054739  0.0472550802
  81.3809128  0.156074464  0.0454038568
  81.8410339  0.154077336  0.0436099023
  82.303772  0.152105317  0.0418868139
  82.7691116  0.15010941  0.0401738286
  83.2370911  0.148122683  0.0385118909
  83.7077179  0.146161661  0.0369187109
  84.1809998  0.144178182  0.0353910178
  84.6569672  0.142215565  0.0339264832
  85.1356201  0.140273631  0.0325113349
  85.6169739  0.138269469  0.030971745
  86.101059  0.136292577  0.029505061
  86.5878754  0.134325027  0.028107034
  87.077446  0.132318705  0.0267723631
  87.5697861  0.130340487  0.0255010724
  88.0649033  0.128350794  0.0242931638
  88.5628204  0.126321465  0.0231474917
  89.0635605  0.124321491  0.0220558438
  89.5671234  0.122324124  0.021016432
  90.0735397  0.120331615  0.0200266689
  90.5828171  0.118368402  0.0190835167
  91.0949783  0.11641904  0.0182206556
  91.6100235  0.114491329  0.0174135957
  92.1279907  0.112592131  0.0166422278
  92.6488876  0.110723801  0.0159093458
  93.1727219  0.108883888  0.0152097028
  93.6995316  0.107071184  0.0145407412
  94.2293091  0.105291337  0.0139546189
  94.7620773  0.103538007  0.0133931013
  95.2978668  0.101811148  0.0128565971
  95.8366852  0.100112528  0.0123565029
  96.3785477  0.0984392092  0.0118758632
  96.9234772  0.0967913643  0.0114173712
  97.4714813  0.0951694399  0.0109847579
  98.0225906  0.0935717002  0.010568534
  98.5768127  0.0920050293  0.0101947626
  99.1341629  0.0904706717  0.00986664649
  99.6946716  0.0889591277  0.00954908784
  100.258347  0.0874804035  0.00925177243
  100.825211  0.0860304758  0.00897026248
  101.395279  0.0846020728  0.00869731698
  101.968567  0.0832118317  0.00847227871
  102.545097  0.0818476379  0.00826580264
  103.124893  0.0805035681  0.0080643585
  103.707962  0.0791973472  0.00788144581
  104.294327  0.077912122  0.00770406658
  104.884018  0.0766472518  0.00753353396
  105.477036  0.0754245445  0.00741129695
  106.073395  0.0742196366  0.00729104504
  106.673141  0.0730413124  0.00717274752
  107.276276  0.0719128251  0.00705638807
  107.88282  0.0708004609  0.00694191689
  108.49279  0.0697117373  0.00683068531
  109.106209  0.0686516613  0.00672357297
  109.723099  0.0676065832  0.0066181398
  110.343475  0.0665823668  0.00651644543
  110.967354  0.0655780882  0.00641819462
  111.594772  0.0645879507  0.00632142322
  112.225731  0.0636166111  0.00622611167
  112.860252  0.0626612157  0.00613223808
  113.498367  0.0617192425  0.00603977917
  114.140099  0.0607941374  0.00595539901
  114.785446  0.0598827526  0.00587353157
  115.434441  0.0589841902  0.00579279056
  116.087112  0.0581021979  0.00572435698
  116.743469  0.0572326332  0.00565689802
  117.403542  0.0563750863  0.00559052732
  118.067345  0.0555285476  0.00552672381
  118.734901  0.0546938963  0.00546364766
  119.406227  0.053874474  0.00540845003
  120.081352  0.053074833  0.00537092565
  120.7603  0.052286353  0.00533366064
  121.443069  0.0515133403  0.00529666245
  122.129715  0.0507565141  0.00525992736
  122.820236  0.0500101782  0.00522344746
  123.514664  0.0492766947  0.00519318366
  124.213028  0.0485549904  0.0051670135
  124.915321  0.0478432961  0.00514097698
  125.621613  0.0471504331  0.00512139779
  126.331871  0.0464699864  0.00510392757
  127.046158  0.0457988568  0.00508651603
  127.764473  0.0451460555  0.00506914314
  128.486847  0.0445030332  0.00505182473
  129.213318  0.043869175  0.00503461389
  129.943893  0.0432501659  0.00501811737
  130.678604  0.0426395312  0.00500167487
  131.417465  0.0420381986  0.00498534366
  132.160507  0.0414486788  0.00496926578
  132.907745  0.0408670977  0.00495324004
  133.65921  0.040294949  0.00493727019
  134.414917  0.0397331603  0.00492135948
  135.174911  0.0391788967  0.00490549905
  135.939194  0.0386342481  0.00489090709
  136.707794  0.0380988121  0.00487744249
  137.480743  0.0375705287  0.00486401469
  138.258057  0.0370521322  0.00485074101
  139.039764  0.0365419462  0.00483755767
  139.825897  0.0360385403  0.00482440973
  140.616486  0.0355447382  0.00481079286
  141.41153  0.0350580476  0.00479711732
  142.211075  0.0345777981  0.00478347996
  143.015137  0.0341068394  0.0047698631
  143.823746  0.0336421356  0.00475628162
  144.636932  0.0331838764  0.00474264985
  145.454712  0.0327335708  0.00472851237
  146.27713  0.0322891809  0.0047144196
  147.104172  0.0318511799  0.00470026676
  147.935898  0.0314201154  0.00468593184
  148.772339  0.0309947059  0.0046716393
  149.613495  0.0305755921  0.00465739006
  150.459412  0.0301628076  0.00464317948
  151.31012  0.029755434  0.00462901313
  152.165619  0.0293541923  0.00461514341
  153.02597  0.0289587006  0.00460147765
  153.89119  0.0285683889  0.00458785333
  154.761292  0.0281847548  0.00457442366
  155.636322  0.0278066155  0.00456108153
  156.516281  0.0274334196  0.00454777991
  157.401245  0.0270669293  0.00453451602
  158.291183  0.0267053861  0.00452129357
  159.186157  0.0263487138  0.00450799102
  160.086212  0.0259987935  0.00449320162
  160.991333  0.0256534275  0.00447845552
  161.901581  0.0253125932  0.00446356181
  162.816986  0.0249764081  0.00444803387
  163.737549  0.0246445816  0.00443256088
  164.66333  0.0243176464  0.00441714982
  165.59433  0.0239959043  0.00440180674
  166.530609  0.0236783158  0.00438651629
  167.472183  0.02336617  0.00437067728
  168.419067  0.0230592117  0.00435437076
  169.371307  0.0227561984  0.00433812523
  170.328949  0.0224566441  0.00431853393
  171.291992  0.0221607555  0.00429748511
  172.260468  0.0218686834  0.0042765392
  173.234436  0.0215803292  0.00425568828
  174.213913  0.0212956797  0.00423493702
  175.198914  0.0210147053  0.0042142882
  176.189499  0.0207375232  0.0041937409
  177.185684  0.0204639174  0.00417329324
  178.187485  0.0201936495  0.00415212708
  179.194962  0.019925762  0.00412642304
  180.208145  0.019661339  0.00410087919
  181.227036  0.0193999056  0.00407544663
  182.251694  0.0191408489  0.00405007415
  183.28215  0.0188851599  0.00402485859
  184.318436  0.0186319575  0.00399979437
  185.36058  0.0183810759  0.00397487916
  186.4086  0.018133482  0.00395011995
  187.46257  0.0178885516  0.0039243293
  188.522491  0.0176464766  0.00389796146
  189.588394  0.0174075868  0.00387177081
  190.660324  0.0171701834  0.0038441699
  191.738327  0.0169354156  0.00381628517
  192.822418  0.0167037565  0.003788603
  193.912643  0.0164720397  0.00376112596
  195.009033  0.0162431542  0.00373384799
  196.111618  0.0160172153  0.00370676676
  197.220444  0.0157929026  0.0036798669
  198.335526  0.0155716045  0.00365316193
  199.456909  0.0153527139  0.00362618989
  200.584656  0.0151348403  0.00359787699
  201.718765  0.0149199245  0.00356978504
  202.859283  0.0147065427  0.00354191288
  204.006256  0.0144938612  0.00351425773
  205.159714  0.0142841022  0.0034868184
  206.319702  0.0140760019  0.00345959398
  207.486221  0.0138697391  0.00343258306
  208.659348  0.013666329  0.00340578309
  209.839127  0.0134637291  0.00337845972
  211.025558  0.01326307  0.00335103157
  212.218689  0.0130652199  0.00332382624
  213.418594  0.012866891  0.00329654897
  214.625259  0.012670788  0.00326944352
  215.83876  0.0124774622  0.00324256113
  217.059113  0.0122866826  0.00321590155
  218.286362  0.0120986113  0.00318946177
  219.520569  0.0119126253  0.00316264271
  220.761734  0.0117261205  0.00313280826
  222.009933  0.0115422877  0.00310325506
  223.265198  0.0113589363  0.0030728702
  224.527527  0.0111734467  0.00304032257
  225.797012  0.0109906802  0.0030081186
  227.073669  0.0108076651  0.00297625829
  228.357559  0.0106239906  0.00294473628
  229.648697  0.0104430765  0.00291354884
  230.947144  0.0102608912  0.00288268551
  232.252914  0.010079029  0.00285214512
  233.566071  0.00989995617  0.00282192859
  234.886658  0.00971795898  0.0027895018
  236.214706  0.00953713153  0.00275670481
  237.550278  0.00935913436  0.00272429269
  238.893402  0.00917505566  0.00269226311
  240.24411  0.00899322238  0.00266061025
  241.602463  0.00881353486  0.00262932922
  242.968475  0.00862785336  0.00259841769
  244.342224  0.00844522659  0.00256786891
  245.72374  0.00826319121  0.00253811781
  247.113068  0.00807634089  0.00251013367
  248.510254  0.00789264031  0.00248245778
  249.915329  0.0077074389  0.00245525828
  251.328369  0.00751819834  0.00242862338
  252.749374  0.00733223325  0.00240227813
  254.178436  0.00714222994  0.00237621926
  255.615555  0.00694949599  0.00235044421
  257.060822  0.00676018465  0.00232494879
  258.514252  0.00656365324  0.00230174465
  259.975891  0.00636611693  0.00227964204
  261.445801  0.00617218483  0.0022577513
  262.924011  0.00596086681  0.00223787734
  264.410583  0.00574987708  0.00221849233
  265.905548  0.00554274069  0.00219927612
  267.408997  0.00531435898  0.00218022591
  268.920929  0.0050904029  0.00216134102
  270.441437  0.00486710668  0.00214593671
  271.97049  0.00462889159  0.00214813463
  273.50824  0.00439537503  0.00215033884
  275.054657  0.00413275603  0.00215371652
  276.609833  0.00380235096  0.00215967465
  278.173767  0.00347886048  0.00216564722
  279.746582  0.0031299144  0.00217163679
  281.328278  0.00272247032  0.00227760477
  282.918915  0.00234330073  0.00248180982
  284.518555  0.0020261046  0.00282946299
  286.127228  0.00183548452  0.0031557614
  287.744995  0.00172225432  0.00346434792
  289.371887  0.00165415322  0.00370569946
  291.008026  0.00160121836  0.00392030366
  292.653381  0.00155245233  0.00408954779
  294.308044  0.00150049466  0.0042333696
  295.972076  0.00144293427  0.00436382974
  297.645508  0.001375583  0.00447861291
  299.3284  0.00130830891  0.00458012894
  301.020813  0.00123350788  0.00466484576
  302.722809  0.0011380018  0.00472124759
  304.434387  0.000989806373  0.00474546244
  306.15567  0.00073871389  0.00477756327
  307.886688  0.000435539638  0.00500095077
  309.627472  0.000241234957  0.00531876087
  311.378113  0.000125487961  0.00559311127
  313.138641  3.28731185E-05  0.0058216271
  314.909149 -0.000107269319  0.00605396042
  316.689667 -0.000286979921  0.00633303868
  318.480225 -0.000467832026  0.00672520883
  320.280945 -0.00053411565  0.00726628816
  322.091797 -0.000453234825  0.00782323163
  323.912903 -0.000214236556  0.0083759781
  325.744324  0.000209281818  0.00886789896
  327.58609  0.000804915559  0.00915046968
  329.438263  0.00136662147  0.00907143578
  331.300903  0.00161355373  0.00888969004
  333.174103  0.00185238523  0.00883583073
  335.057861  0.00188235426  0.00870764907
  336.952271  0.00196093554  0.0087182913
  338.857452  0.00221876916  0.00896405522
  340.773346  0.00254397327  0.00872879103
  342.700073  0.00256516389  0.00861066021
  344.637695  0.00260988413  0.00854961667
  346.586304  0.0026754532  0.00853559934
  348.545929  0.00270402688  0.00848418847
  350.516602  0.00275311316  0.00844782032
  352.498413  0.00280075893  0.00841160957
  354.491486  0.00284175668  0.00845816545
  356.495758  0.00287968758  0.00853401236
  358.511414  0.0029164101  0.00861053634
  360.538422  0.00308013125  0.00861301832
  362.576935  0.00325447554  0.00860689487
  364.626923  0.00342310616  0.00859842077
  366.688568  0.00356122805  0.00854594633
  368.76181  0.00369582418  0.0084937932
  370.846802  0.00382217835  0.00842964929
  372.943573  0.00392690022  0.00831870828
  375.052216  0.00402879296  0.00820922945
  377.17276  0.00411155354  0.00810218416
  379.305298  0.0041630948  0.00799828768
  381.44989  0.00421295408  0.00789572299
  383.606628  0.00425286032  0.00779842725
  385.775543  0.00428354228  0.00770603493
  387.956757  0.00431300653  0.00761473645
  390.150269  0.00433652941  0.00752960332
  392.356171  0.00435666181  0.00744792214
  394.574554  0.00437579723  0.00736712525
  396.805481  0.0043939515  0.00729258172
  399.049042  0.00441114698  0.00721994322
  401.305267  0.00442740507  0.00714802928
  403.57428  0.00444317795  0.00707398169
  405.856079  0.00445805117  0.00700063352
  408.150787  0.00447175233  0.00692774076
  410.458496  0.00448273635  0.00685358746
  412.779236  0.00449291104  0.00678022951
  415.113098  0.00450084405  0.00670675235
  417.460144  0.00450442685  0.00663181813
  419.820465  0.00450736331  0.00655772118
  422.194153  0.00450670253  0.00648490107
  424.581238  0.00450174045  0.00641345885
  426.981842  0.00449632341  0.0063428022
  429.395996  0.00448868936  0.00627412787
  431.823792  0.00447946461  0.0062070149
  434.26535  0.0044698827  0.00614061859
  436.720703  0.00445619831  0.00607029116
  439.189941  0.00444100285  0.00599921588
  441.673126  0.0044255876  0.00592897367
  444.170349  0.00438958313  0.00585512212
  446.681702  0.00435162243  0.00578171154
  449.207245  0.00431184052  0.00570922112
  451.74707  0.00420186622  0.00563740265
  454.30127  0.00407490367  0.00556636229
  456.869873  0.00385775836  0.00557966856
  459.453064  0.00353989122  0.00582060078
  462.050812  0.00379608362  0.00715686614
  464.663269  0.00504729757  0.0060799825
  467.290466  0.00466473447  0.0055883443
