 Si Density=2.33
 Energy(eV), Delta, Beta
  30.  0.145224988  0.0142891994
  30.1696186  0.143251643  0.0141436802
  30.3402004  0.14130944  0.0139996372
  30.5117435  0.139398038  0.0138570582
  30.6842594  0.137511685  0.0137159284
  30.8577499  0.135648534  0.0135762468
  31.032217  0.133809105  0.0134379929
  31.207674  0.131993815  0.0133011434
  31.3841228  0.130205959  0.013173542
  31.5615711  0.128442436  0.0130490558
  31.7400208  0.1267021  0.0129257469
  31.9194775  0.124995507  0.0128261074
  32.0999527  0.123311669  0.0127282003
  32.2814484  0.121652007  0.0126310391
  32.4639664  0.120030493  0.0125346277
  32.6475182  0.118430011  0.012438952
  32.8321075  0.116853371  0.0123440092
  33.0177422  0.115305394  0.0122497929
  33.2044258  0.113777421  0.0121562937
  33.3921661  0.112272888  0.0120635033
  33.5809631  0.110792808  0.0119714178
  33.7708321  0.109331757  0.0118800299
  33.9617729  0.107893728  0.0117893498
  34.1537933  0.106477231  0.0116993682
  34.3468971  0.105078958  0.0116100721
  34.5410995  0.103703052  0.0115214465
  34.736393  0.102346487  0.0114334943
  34.9327927  0.101007275  0.0113462145
  35.1303024  0.0996898264  0.0112596052
  35.3289299  0.0983898193  0.0111736571
  35.5286827  0.0971065909  0.0110883629
  35.7295647  0.0958443284  0.0110037252
  35.9315758  0.0945981964  0.0109197339
  36.1347351  0.0933687091  0.0108363833
  36.3390427  0.0921581686  0.0107536735
  36.5445023  0.0909630433  0.0106715979
  36.7511292  0.0897844806  0.0105901407
  36.9589195  0.0886234865  0.0105092991
  37.1678848  0.0874772519  0.0104290759
  37.3780365  0.0863474458  0.0103494674
  37.5893707  0.0852338746  0.0102704763
  37.8019028  0.0841344073  0.0101920851
  38.0156364  0.0830515772  0.010114288
  38.2305756  0.0819838718  0.0100370804
  38.4467316  0.0809296519  0.00996046327
  38.6641121  0.0798937678  0.00988443103
  38.8827171  0.078872107  0.00980898086
  39.102562  0.0778632984  0.00973410439
  39.3236465  0.0768762305  0.00965155754
  39.5459862  0.0759018362  0.00956939999
  39.769577  0.0749393255  0.00948632881
  39.9944382  0.0739865303  0.00939204451
  40.2205696  0.0730456784  0.00929869618
  40.4479713  0.0721136034  0.00920628104
  40.6766701  0.0711850822  0.00911478046
  40.9066544  0.0702683479  0.00902419444
  41.1379395  0.0693622157  0.00893450528
  41.3705368  0.0684662014  0.00884570181
  41.6044502  0.0675815567  0.00875778124
  41.8396797  0.0667066127  0.00867074076
  42.0762405  0.0658416748  0.00858456735
  42.3141441  0.0649877191  0.00849924795
  42.5533867  0.0641427711  0.0084147742
  42.7939835  0.0633079037  0.00833113678
  43.0359421  0.0624836907  0.00824833009
  43.2792702  0.0616678633  0.00816634763
  43.5239716  0.0608622134  0.00808518194
  43.7700577  0.060066767  0.00800482184
  44.0175323  0.0592791736  0.00792526174
  44.266407  0.0585016906  0.00784649234
  44.5166893  0.0577337295  0.00776850758
  44.7683907  0.056973815  0.00769129861
  45.0215111  0.0562236793  0.00761485891
  45.276062  0.0554826483  0.00753917824
  45.5320587  0.0547501072  0.00746424356
  45.7894974  0.0540270321  0.00739005581
  46.0483894  0.0533120632  0.00731489761
  46.3087502  0.0526051298  0.00723885093
  46.5705795  0.0519073494  0.00716359494
  46.833889  0.0512156188  0.0070881024
  47.0986938  0.0505313389  0.00701288413
  47.3649902  0.0498559773  0.00693846494
  47.6327934  0.0491847582  0.0068648383
  47.9021072  0.048521284  0.00679199351
  48.1729469  0.0478664972  0.00671992218
  48.4453201  0.0472159944  0.0066486178
  48.7192307  0.046573922  0.00657807058
  48.9946899  0.0459397398  0.00650827214
  49.2717056  0.0453098081  0.00643920759
  49.5502892  0.0446882211  0.00637087598
  49.8304482  0.0440734886  0.00630326988
  50.1121902  0.0434633419  0.00623638416
  50.3955231  0.042861335  0.00617020857
  50.6804619  0.0422651209  0.00610473519
  50.9670105  0.0416739695  0.00603995938
  51.2551804  0.0410907641  0.00597586995
  51.5449753  0.040510051  0.00591246039
  51.8364143  0.0399334282  0.00584972184
  52.1294975  0.0393646583  0.00578764966
  52.4242401  0.0387982763  0.00572887482
  52.7206459  0.0382377878  0.00567161664
  53.0187302  0.0376849845  0.0056149303
  53.3185005  0.0371376313  0.00556653738
  53.6199646  0.0365975648  0.00551947299
  53.9231339  0.0360648893  0.00547280628
  54.2280159  0.035538584  0.00542653399
  54.5346184  0.0350195542  0.00538065378
  54.8429642  0.0345069952  0.00533515774
  55.1530457  0.033998847  0.00529004307
  55.4648819  0.0334977508  0.00524530979
  55.7784805  0.0330020487  0.00520095602
  56.093853  0.0325104408  0.00515698036
  56.4110107  0.032025706  0.00511337537
  56.7299576  0.0315451063  0.00507014105
  57.0507126  0.031068746  0.00502727134
  57.3732758  0.0305991061  0.00498476485
  57.6976662  0.0301307123  0.00494261645
  58.0238914  0.0296662915  0.00490082288
  58.3519592  0.0292085055  0.00485938368
  58.6818848  0.0287457127  0.00481829559
  59.0136681  0.0282871183  0.00477755722
  59.3473358  0.027835181  0.00473716063
  59.682888  0.0273874961  0.00471888576
  60.0203362  0.0269462857  0.00470127212
  60.3596878  0.026512282  0.00468406593
  60.7009659  0.0260895751  0.00466926489
  61.0441742  0.0256730132  0.00465451088
  61.3893127  0.0252631791  0.0046398039
  61.736412  0.0248609576  0.00462514069
  62.0854721  0.0244645793  0.00461052405
  62.4365044  0.0240744632  0.00459595444
  62.7895203  0.0236906577  0.00458143186
  63.1445351  0.023312429  0.00456695445
  63.5015564  0.0229409765  0.00455252454
  63.8605919  0.0225757938  0.00453814073
  64.2216644  0.022215914  0.00452380162
  64.5847778  0.0218690317  0.00450820196
  64.9499435  0.0215297733  0.00449220976
  65.3171692  0.0211953726  0.00447627483
  65.68647  0.0208590515  0.00443981774
  66.057869  0.0205268525  0.00440136157
  66.4313583  0.0201989692  0.00436323928
  66.8069611  0.0198666416  0.00432544341
  67.1846848  0.0195392389  0.00428797444
  67.5645523  0.0192158371  0.00425083004
  67.9465637  0.0188940894  0.00421400834
  68.3307343  0.0185771361  0.00417750515
  68.7170792  0.0182655882  0.00414131815
  69.1056061  0.0179598574  0.00410544546
  69.4963303  0.01765869  0.00406988338
  69.8892593  0.0173642654  0.0040233992
  70.2844162  0.0170763079  0.00396704115
  70.6818085  0.0167926252  0.00391147146
  71.0814514  0.0164963361  0.00384158897
  71.483345  0.0161963869  0.00376567128
  71.8875122  0.0159010906  0.00369125372
  72.2939682  0.0155928824  0.00361831021
  72.702713  0.0152858989  0.00354681024
  73.1137772  0.0149838375  0.0034767224
  73.5271683  0.0146776196  0.0034080171
  73.9428864  0.0143762035  0.0033406734
  74.3609619  0.0140787819  0.00327205542
  74.7814026  0.013780361  0.00318821706
  75.2042236  0.0134868482  0.00310652237
  75.629425  0.0131879039  0.00302267354
  76.0570374  0.0128686121  0.00293081603
  76.4870682  0.0125548234  0.00284174946
  76.9195251  0.012229993  0.00275538722
  77.3544312  0.0118902335  0.00267164642
  77.7917938  0.0115565574  0.00259045069
  78.2316284  0.0112120295  0.00251210341
  78.6739502  0.0108624548  0.00243637618
  79.118782  0.0105193071  0.00236293115
  79.5661163  0.0101640802  0.00231832732
  80.0159836  0.0098094102  0.0022833636
  80.4683914  0.00946141686  0.00224892795
  80.9233704  0.00911587011  0.00221501268
  81.3809128  0.00877645146  0.00218160939
  81.8410339  0.00844249222  0.00214871019
  82.303772  0.00809875503  0.00211630529
  82.7691116  0.00776168797  0.00208439049
  83.2370911  0.00742428051  0.0020531842
  83.7077179  0.00706827315  0.00202328106
  84.1809998  0.00671931729  0.00199381378
  84.6569672  0.00636915909  0.00197128672
  85.1356201  0.00601208862  0.00196020282
  85.6169739  0.00566222612  0.0019491819
  86.101059  0.00531111797  0.00193822279
  86.5878754  0.00495958328  0.0019273262
  87.077446  0.00461526355  0.00191649073
  87.5697861  0.00425677467  0.00190571533
  88.0649033  0.00389560754  0.00189500034
  88.5628204  0.00354200508  0.00188434566
  89.0635605  0.00316346018  0.00187375129
  89.5671234  0.00278635114  0.00186321698
  90.0735397  0.00241730083  0.00185274181
  90.5828171  0.0020059112  0.00184434617
  91.0949783  0.0016025923  0.00183602306
  91.6100235  0.00119933521  0.00182831252
  92.1279907  0.000750464969  0.00182423857
  92.6488876  0.000311473879  0.00182017521
  93.1727219 -0.000143378726  0.00181611907
  93.6995316 -0.000649866415  0.00181207608
  94.2293091 -0.00114489277  0.00180803961
  94.7620773 -0.00169244804  0.00180401362
  95.2978668 -0.00230584759  0.00179999636
  95.8366852 -0.002905278  0.00179598772
  96.3785477 -0.00365531282  0.00179340353
  96.9234772 -0.00449642958  0.00179176498
  97.4714813 -0.0053182249  0.00179012842
  98.0225906 -0.00675809151  0.00179569935
  98.5768127 -0.00837017223  0.00180364877
  99.1341629 -0.00994525198  0.00181163382
  99.6946716 -0.0149505772  0.00240246835
  100.258347 -0.0159721151  0.00902968552
  100.825211 -0.0133646289  0.0169767831
  101.395279 -0.00679248385  0.0173963774
  101.968567 -0.00398483267  0.0134041719
  102.545097 -0.00487243058  0.0127388043
  103.124893 -0.00440332294  0.011850534
  103.707962 -0.00458329776  0.0106658032
  104.294327 -0.0052595525  0.0103714447
  104.884018 -0.0061819884  0.0104152551
  105.477036 -0.00716761919  0.0109940916
  106.073395 -0.00729016447  0.0124480203
  106.673141 -0.00705904095  0.0131218061
  107.276276 -0.00665559852  0.0135722673
  107.88282 -0.00646383362  0.0139662176
  108.49279 -0.00609048223  0.0143432179
  109.106209 -0.00578484591  0.0143838106
  109.723099 -0.00583399041  0.0144962454
  110.343475 -0.00589448819  0.014814849
  110.967354 -0.00579528557  0.0152339451
  111.594772 -0.00559279043  0.015594109
  112.225731 -0.00538947526  0.0158384051
  112.860252 -0.0052536591  0.0160392486
  113.498367 -0.00516825402  0.0162061751
  114.140099 -0.00511858705  0.0164219551
  114.785446 -0.00517283939  0.0168316104
  115.434441 -0.00508363545  0.0173082426
  116.087112 -0.00483180815  0.0178459678
  116.743469 -0.00457322411  0.0184039604
  117.403542 -0.00410762476  0.0188851841
  118.067345 -0.00354811875  0.0192374606
  118.734901 -0.00297416234  0.0194090679
  119.406227 -0.00240030256  0.0194509421
  120.081352 -0.00201730337  0.0195088349
  120.7603 -0.00167806505  0.0195929036
  121.443069 -0.001348975  0.0196773559
  122.129715 -0.000860571396  0.0196931902
  122.820236 -0.000451408705  0.0196376853
  123.514664 -5.27104567E-05  0.0195806865
  124.213028  0.000262915099  0.0194946434
  124.915321  0.000603100983  0.0193930268
  125.621613  0.000831546902  0.0193237681
  126.331871  0.00103572488  0.0192707162
  127.046158  0.00124122435  0.0192154013
  127.764473  0.00150446186  0.0191639885
  128.486847  0.00172125944  0.0191790368
  129.213318  0.00195370405  0.0191737078
  129.943893  0.00225301739  0.0192268789
  130.678604  0.00263363263  0.0192628223
  131.417465  0.0030088916  0.0192942116
  132.160507  0.00349430414  0.0192081947
  132.907745  0.00398318935  0.0191079527
  133.65921  0.00451247673  0.0188064389
  134.414917  0.00494051771  0.0183456875
  135.174911  0.00513189472  0.0178026929
  135.939194  0.00529004727  0.0172643233
  136.707794  0.00530523667  0.0168648362
  137.480743  0.00519820815  0.0164724812
  138.258057  0.00512574753  0.0163250174
  139.039764  0.00505572418  0.0161856152
  139.825897  0.00500278268  0.0160610378
  140.616486  0.00504779164  0.0160002131
  141.41153  0.00515449652  0.015840074
  142.211075  0.00516390847  0.0156334471
  143.015137  0.00510881189  0.0154527631
  143.823746  0.0050493856  0.0154788233
  144.636932  0.00506249629  0.0154491328
  145.454712  0.00513974996  0.0154515607
  146.27713  0.00523924176  0.01537818
  147.104172  0.00534324348  0.0153118335
  147.935898  0.00546590658  0.0152223827
  148.772339  0.00559437554  0.0151155014
  149.613495  0.00567351747  0.0149475969
  150.459412  0.00560709462  0.0148157245
  151.31012  0.00562634459  0.0149600971
  152.165619  0.00597428018  0.0150635531
  153.02597  0.00635627238  0.0147801563
  153.89119  0.0065344125  0.0143350065
  154.761292  0.00646992819  0.013899548
  155.636322  0.0062667462  0.0137122553
  156.516281  0.00612993725  0.0136860777
  157.401245  0.00609924225  0.0136134112
  158.291183  0.0060534412  0.0136690224
  159.186157  0.00612200052  0.0136177531
  160.086212  0.00616736896  0.0136021022
  160.991333  0.00622692285  0.0136382924
  161.901581  0.00628437521  0.0136745898
  162.816986  0.00638217805  0.0136992363
  163.737549  0.00656096544  0.0136914346
  164.66333  0.00675030332  0.0136405444
  165.59433  0.00694528222  0.013529391
  166.530609  0.00712627498  0.0134399179
  167.472183  0.00719787274  0.0133794909
  168.419067  0.00748719927  0.0132753104
  169.371307  0.00776963681  0.0131360497
  170.328949  0.00803669076  0.0129221352
  171.291992  0.00829883292  0.0126525527
  172.260468  0.00843732059  0.0122376792
  173.234436  0.00854938757  0.0119714318
  174.213913  0.00864931941  0.0115340455
  175.198914  0.00860893819  0.0111645637
  176.189499  0.00852264371  0.0108599234
  177.185684  0.00842986442  0.0105882445
  178.187485  0.00833512656  0.0103834309
  179.194962  0.0081953425  0.0101590808
  180.208145  0.00803573988  0.0100672226
  181.227036  0.00805527437  0.00992593262
  182.251694  0.00807336997  0.00978662446
  183.28215  0.00806336477  0.00964927208
  184.318436  0.00800750405  0.00951384567
  185.36058  0.00795188267  0.00938032474
  186.4086  0.00790749025  0.00924824923
  187.46257  0.00787297357  0.00911765359
  188.522491  0.00783823803  0.0089889029
  189.588394  0.00780491764  0.00885970145
  190.660324  0.00777212437  0.0087312879
  191.738327  0.00773908384  0.00860473514
  192.822418  0.00770515297  0.00848002918
  193.912643  0.00767087843  0.00835713185
  195.009033  0.00763640273  0.00823601615
  196.111618  0.00760091329  0.00811664294
  197.220444  0.00756524783  0.00799900107
  198.335526  0.00752908131  0.00788306631
  199.456909  0.00749067124  0.00776881445
  200.584656  0.00745217828  0.00765621476
  201.718765  0.00741296867  0.00754627865
  202.859283  0.00737218978  0.00744035468
  204.006256  0.00733139226  0.00733591896
  205.159714  0.00729176821  0.00723385299
  206.319702  0.00725354627  0.00713430345
  207.486221  0.00721526705  0.00703612436
  208.659348  0.00717791542  0.00693929708
  209.839127  0.00714113191  0.00684380485
  211.025558  0.00710427109  0.00674962485
  212.218689  0.00706800027  0.00665674079
  213.418594  0.00703185704  0.00656513358
  214.625259  0.00699563744  0.00647478737
  215.83876  0.00696256477  0.00638568075
  217.059113  0.0069296658  0.00629780116
  218.286362  0.00689683948  0.00621100189
  219.520569  0.00686683087  0.00612354651
  220.761734  0.00683662528  0.00603732793
  222.009933  0.00680575287  0.00595003786
  223.265198  0.00677299732  0.00585604692
  224.527527  0.00674011931  0.0057635433
  225.797012  0.00670540193  0.00567249581
  227.073669  0.00666775135  0.00558288395
  228.357559  0.00663010078  0.00549468771
  229.648697  0.00659123342  0.00540788332
  230.947144  0.00655132439  0.00532244937
  232.252914  0.00651148101  0.00523836538
  233.566071  0.00647070771  0.00515561225
  234.886658  0.0064295698  0.00507416483
  236.214706  0.00638854131  0.00499400543
  237.550278  0.00634675426  0.00491511542
  238.893402  0.00630493416  0.00483747385
  240.24411  0.00626325374  0.00476105977
  241.602463  0.00622114632  0.00468584849
  242.968475  0.00617919164  0.00461182604
  244.342224  0.00613752985  0.00453897147
  245.72374  0.00609681988  0.00446726428
  247.113068  0.00605625054  0.00439669052
  248.510254  0.00601549959  0.00432620989
  249.915329  0.00597414747  0.00425451156
  251.328369  0.00593296858  0.00418399926
  252.749374  0.0058908714  0.00411441782
  254.178436  0.00584767107  0.00404570904
  255.615555  0.00580470031  0.00397814857
  257.060822  0.00576110231  0.00391171267
  258.514252  0.00571720675  0.00384638482
  259.975891  0.00567357149  0.00378214731
  261.445801  0.00562938349  0.00371898618
  262.924011  0.00558522251  0.00365688116
  264.410583  0.00554134464  0.00359581318
  265.905548  0.00549698342  0.00353576127
  267.408997  0.00545284944  0.00347671122
  268.920929  0.00540896552  0.00341864745
  270.441437  0.00536473049  0.00336155412
  271.97049  0.00532080792  0.00330541702
  273.50824  0.00527705858  0.00325021311
  275.054657  0.00523315184  0.00319593539
  276.609833  0.00518956408  0.00314256293
  278.173767  0.00514610624  0.003090085
  279.746582  0.00510266144  0.00303848158
  281.328278  0.00505954493  0.00298774056
  282.918915  0.00501653692  0.00293784542
  284.518555  0.00497366907  0.00288878125
  286.127228  0.00493113231  0.00284053735
  287.744995  0.00488872267  0.0027931002
  289.371887  0.00484655472  0.00274645607
  291.008026  0.00480471598  0.0027005903
  292.653381  0.00476321951  0.00265549077
  294.308044  0.00472205086  0.00261114351
  295.972076  0.00468120631  0.00256753713
  297.645508  0.00464047911  0.00252388814
  299.3284  0.00460007507  0.00248097815
  301.020813  0.00455990201  0.00243870658
  302.722809  0.00451953802  0.00239664852
  304.434387  0.00447950652  0.00235531642
  306.15567  0.0044395593  0.00231469725
  307.886688  0.00439939229  0.0022747796
  309.627472  0.00435956754  0.00223555136
  311.378113  0.00431987783  0.0021969988
  313.138641  0.00428029057  0.00215911143
  314.909149  0.00424104696  0.00212187693
  316.689667  0.00420191744  0.00208528363
  318.480225  0.00416298909  0.00204932061
  320.280945  0.00412440486  0.00201397738
  322.091797  0.00408594683  0.00197924767
  323.912903  0.00404776679  0.00194511749
  325.744324  0.00400992902  0.00191157579
  327.58609  0.0039722044  0.00187861
  329.438263  0.00393480249  0.00184621254
  331.300903  0.00389772421  0.00181437365
  333.174103  0.00386079052  0.00178308401
  335.057861  0.00382419582  0.00175233418
  336.952271  0.00378790428  0.00172211474
  338.857452  0.00375183905  0.00169241603
  340.773346  0.00371610723  0.00166323024
  342.700073  0.00368066505  0.00163454772
  344.637695  0.00364548806  0.00160635891
  346.586304  0.00361063704  0.00157865603
  348.545929  0.00357609848  0.00155143137
  350.516602  0.00354187191  0.00152467715
  352.498413  0.00350796361  0.0014983844
  354.491486  0.00347444927  0.00147254323
  356.495758  0.00344128208  0.00144714792
  358.511414  0.00340842106  0.00142218999
  360.538422  0.00337632932  0.00139766501
  362.576935  0.00334461103  0.00137356273
  364.626923  0.00331318052  0.0013498757
  366.688568  0.00328221428  0.00132476934
  368.76181  0.0032515272  0.00130013027
  370.846802  0.00322094955  0.00127587689
  372.943573  0.00318975886  0.00125168858
  375.052216  0.0031588627  0.00122795883
  377.17276  0.00312799518  0.00120467925
  379.305298  0.00309684174  0.00118184183
  381.44989  0.00306599331  0.00115943805
  383.606628  0.00303526828  0.00113745802
  385.775543  0.00300464174  0.00111589476
  387.956757  0.00297431974  0.00109473919
  390.150269  0.00294410926  0.00107398559
  392.356171  0.00291408529  0.0010536242
  394.574554  0.00288436469  0.00103364873
  396.805481  0.00285474234  0.00101405242
  399.049042  0.00282536238  0.000994827482
  401.305267  0.00279628253  0.000975967385
  403.57428  0.00276729255  0.000957464625
  405.856079  0.00273858523  0.000939312624
  408.150787  0.00271015917  0.000921504863
  410.458496  0.00268186117  0.000904034474
  412.779236  0.00265385699  0.000886895519
  415.113098  0.00262610591  0.00087008148
  417.460144  0.0025985213  0.000853586243
  419.820465  0.00257122517  0.000837403582
  422.194153  0.00254416117  0.000821527792
  424.581238  0.00251729903  0.000805953168
  426.981842  0.00249071908  0.000790673599
  429.395996  0.00246435823  0.000775684719
  431.823792  0.00243822532  0.000760979601
  434.26535  0.00241236831  0.000746553356
