 W Density=19.3
 Energy(eV), Delta, Beta
  30.  0.263110489  0.204713166
  30.1696186  0.258558869  0.200761989
  30.3402004  0.253820509  0.196887091
  30.5117435  0.248899817  0.19308728
  30.6842594  0.244057432  0.189360753
  30.8577499  0.238970339  0.185795367
  31.032217  0.233795762  0.182344377
  31.207674  0.22870703  0.178957373
  31.3841228  0.223452061  0.175872266
  31.5615711  0.218225867  0.172897488
  31.7400208  0.213088781  0.169973031
  31.9194775  0.20772481  0.167098254
  32.0999527  0.202440679  0.164271966
  32.2814484  0.197181955  0.161514863
  32.4639664  0.191495061  0.158968985
  32.6475182  0.185910746  0.156463161
  32.8321075  0.180336803  0.154114321
  33.0177422  0.174618244  0.152118579
  33.2044258  0.16900523  0.150148645
  33.3921661  0.163384452  0.148204267
  33.5809631  0.157716945  0.146285176
  33.7708321  0.152155921  0.144390866
  33.9617729  0.146210775  0.142521083
  34.1537933  0.140023589  0.140675485
  34.3468971  0.133956984  0.138853788
  34.5410995  0.127274215  0.137804285
  34.736393  0.120456651  0.137038335
  34.9327927  0.113775745  0.136276647
  35.1303024  0.107104577  0.136316717
  35.3289299  0.100552529  0.136461616
  35.5286827  0.0941251367  0.136606619
  35.7295647  0.087611258  0.13675195
  35.9315758  0.0812318921  0.13689743
  36.1347351  0.0746219754  0.137043044
  36.3390427  0.0666486695  0.137188748
  36.5445023  0.0588448122  0.137334615
  36.7511292  0.0507416651  0.13889198
  36.9589195  0.0419459604  0.143192947
  37.1678848  0.0333411284  0.1476271
  37.3780365  0.0257104021  0.152655572
  37.5893707  0.0190210585  0.158327445
  37.8019028  0.0124784922  0.164210036
  38.0156364  0.00681384699  0.170795843
  38.2305756  0.00165611901  0.177910879
  38.4467316 -0.00338701345  0.185322732
  38.6641121 -0.00701573584  0.193042323
  38.8827171 -0.010260215  0.201083288
  39.102562 -0.013431049  0.209459111
  39.3236465 -0.016835738  0.218186796
  39.5459862 -0.0201738365  0.227278218
  39.769577 -0.0228630453  0.237247705
  39.9944382 -0.021268025  0.251585901
  40.2205696 -0.0197059568  0.266789824
  40.4479713 -0.014880727  0.280949175
  40.6766701 -0.0014372057  0.290397942
  40.9066544  0.0117067033  0.300164551
  41.1379395  0.0244384147  0.305308193
  41.3705368  0.0367265791  0.303887367
  41.6044502  0.0487360992  0.302473187
  41.8396797  0.058755368  0.30106625
  42.0762405  0.0673185885  0.299666166
  42.3141441  0.0756831467  0.298272699
  42.5533867  0.083567746  0.292925864
  42.7939835  0.0911654457  0.286285818
  43.0359421  0.0985822454  0.279796213
  43.2792702  0.102410182  0.272675633
  43.5239716  0.105718382  0.265641659
  43.7700577  0.108779415  0.258641779
  44.0175323  0.108250432  0.248669118
  44.266407  0.107719608  0.239081264
  44.5166893  0.106237508  0.230921686
  44.7683907  0.100964457  0.227239683
  45.0215111  0.0957963169  0.223616466
  45.276062  0.090943031  0.220418245
  45.5320587  0.0865724534  0.217934892
  45.7894974  0.0822884738  0.215479493
  46.0483894  0.0775617212  0.21449849
  46.3087502  0.0724210367  0.214936882
  46.5705795  0.0673858896  0.215376213
  46.833889  0.0631725118  0.21725744
  47.0986938  0.0594103001  0.219907656
  47.3649902  0.0557246469  0.222590014
  47.6327934  0.0533295013  0.226412952
  47.9021072  0.0512550734  0.230558991
  48.1729469  0.0492203869  0.234781191
  48.4453201  0.0491099916  0.239725828
  48.7192307  0.0490565188  0.244795993
  48.9946899  0.049363751  0.249973506
  49.2717056  0.0522428006  0.255260795
  49.5502892  0.0550510734  0.260659903
  49.8304482  0.0585719161  0.265781403
  50.1121902  0.0640253574  0.269962996
  50.3955231  0.0693494007  0.274210751
  50.6804619  0.0753771067  0.276962072
  50.9670105  0.082344979  0.277671784
  51.2551804  0.0891471133  0.278383285
  51.5449753  0.0958763883  0.278107524
  51.8364143  0.102506526  0.277134567
  52.1294975  0.108975947  0.276165068
  52.4242401  0.11466819  0.27338022
  52.7206459  0.120003246  0.269992441
  53.0187302  0.125204504  0.266646594
  53.3185005  0.129558221  0.263342232
  53.6199646  0.133714408  0.260078788
  53.9231339  0.137770995  0.256812036
  54.2280159  0.141913503  0.252732068
  54.5346184  0.145945832  0.24871704
  54.8429642  0.149701774  0.244486436
  55.1530457  0.152701512  0.239248931
  55.4648819  0.155615151  0.234123573
  55.7784805  0.157997414  0.229107752
  56.093853  0.159508809  0.224198684
  56.4110107  0.160966441  0.219394833
  56.7299576  0.162137419  0.214694202
  57.0507126  0.16304037  0.210094467
  57.3732758  0.163902715  0.205593288
  57.6976662  0.164480448  0.201188728
  58.0238914  0.164902776  0.196878657
  58.3519592  0.165294975  0.192660943
  58.6818848  0.165427327  0.188533202
  59.0136681  0.165485695  0.184493855
  59.3473358  0.165521875  0.180541039
  59.682888  0.165319428  0.176673412
  60.0203362  0.165094867  0.172888666
  60.3596878  0.164831579  0.169185147
  60.7009659  0.164398834  0.165560335
  61.0441742  0.163955063  0.162013218
  61.3893127  0.163460001  0.158542216
  61.736412  0.162853092  0.15514569
  62.0854721  0.162239268  0.151821971
  62.4365044  0.161569595  0.148569331
  62.7895203  0.16083172  0.145386189
  63.1445351  0.160090044  0.14227125
  63.5015564  0.159332961  0.139223218
  63.8605919  0.158564642  0.136240512
  64.2216644  0.157793477  0.133321732
  64.5847778  0.15698868  0.130358249
  64.9499435  0.15617162  0.127424672
  65.3171692  0.155353129  0.124557115
  65.68647  0.15435034  0.121604979
  66.057869  0.153330043  0.11870639
  66.4313583  0.1523038  0.115876965
  66.8069611  0.151113868  0.113115445
  67.1846848  0.149931446  0.110419832
  67.5645523  0.148732364  0.10778822
  67.9465637  0.147449836  0.105218917
  68.3307343  0.146177366  0.102710828
  68.7170792  0.144882068  0.100262575
  69.1056061  0.143540069  0.0978727788
  69.4963303  0.142209962  0.0955399126
  69.8892593  0.140862554  0.0932627097
  70.2844162  0.139500424  0.0910397992
  70.6818085  0.138151139  0.0888698623
  71.0814514  0.136793017  0.0867468119
  71.483345  0.135437533  0.0846721828
  71.8875122  0.134095252  0.0826471746
  72.2939682  0.132705644  0.0805187598
  72.702713  0.13131763  0.0784136504
  73.1137772  0.129944026  0.0763635859
  73.5271683  0.128422007  0.0743670389
  73.9428864  0.126914248  0.0724228024
  74.3609619  0.125410229  0.0705292821
  74.7814026  0.123833932  0.0686852708
  75.2042236  0.122277185  0.0668893829
  75.629425  0.120713808  0.0651406497
  76.0570374  0.119106084  0.063437596
  76.4870682  0.117519245  0.0617790595
  76.9195251  0.115914769  0.0601638705
  77.3544312  0.114283532  0.0585908592
  77.7917938  0.112674326  0.0570589788
  78.2316284  0.111033358  0.0555671677
  78.6739502  0.10937909  0.0541143864
  79.118782  0.107747927  0.0526995584
  79.5661163  0.106007978  0.0513217598
  80.0159836  0.104249991  0.0499799885
  80.4683914  0.102518111  0.0486732982
  80.9233704  0.100719318  0.0476225466
  81.3809128  0.0989382416  0.0466176793
  81.8410339  0.0971924961  0.0456360988
  82.303772  0.0956025422  0.0447081625
  82.7691116  0.0940360948  0.043799147
  83.2370911  0.0924865901  0.0429085642
  83.7077179  0.0909376293  0.0420361049
  84.1809998  0.0894117877  0.0411813892
  84.6569672  0.0878613517  0.0403440446
  85.1356201  0.0862534195  0.0395237245
  85.6169739  0.0846705139  0.0387200899
  86.101059  0.083066538  0.0380476043
  86.5878754  0.08144629  0.0374910235
  87.077446  0.0798519254  0.0369425789
  87.5697861  0.0783899426  0.0364578776
  88.0649033  0.0770016536  0.0360060744
  88.5628204  0.0756346434  0.0355598703
  89.0635605  0.0742993057  0.0351191908
  89.5671234  0.0729866028  0.0346839726
  90.0735397  0.0716939941  0.0342541449
  90.5828171  0.0703457594  0.0338296555
  91.0949783  0.0690174699  0.0334104225
  91.6100235  0.0677074343  0.0330284126
  92.1279907  0.0664009228  0.0328502059
  92.6488876  0.0651151538  0.0326729752
  93.1727219  0.0638960078  0.0325004049
  93.6995316  0.0628065169  0.0323377661
  94.2293091  0.0617335103  0.0321759172
  94.7620773  0.0606932826  0.032014899
  95.2978668  0.0596890859  0.0318546966
  95.8366852  0.0586997718  0.0316952914
  96.3785477  0.0577348582  0.0315366723
  96.9234772  0.0567905866  0.0313788354
  97.4714813  0.0558602475  0.0312217996
  98.0225906  0.054954078  0.0310875587
  98.5768127  0.0540645681  0.0309610423
  99.1341629  0.0531881116  0.0308350474
  99.6946716  0.0523633473  0.0307161231
  100.258347  0.0515542589  0.0305983145
  100.825211  0.0507579669  0.0304809641
  101.395279  0.0499915592  0.0303641576
  101.968567  0.0492359623  0.0302478056
  102.545097  0.0484944843  0.0301319063
  103.124893  0.0477758199  0.0300164893
  103.707962  0.0470671915  0.0299015008
  104.294327  0.0463730879  0.0297869015
  104.884018  0.0456963852  0.0296726394
  105.477036  0.0450290404  0.0295588095
  106.073395  0.0443755127  0.0294455159
  106.673141  0.0437350757  0.0293327328
  107.276276  0.043103423  0.0292203743
  107.88282  0.0424826033  0.0291084163
  108.49279  0.0418713018  0.0289968736
  109.106209  0.0412683636  0.0288857576
  109.723099  0.0406728834  0.0287899282
  110.343475  0.0400854126  0.0286973584
  110.967354  0.0395060107  0.0286050886
  111.594772  0.0389551632  0.0285234004
  112.225731  0.0384119637  0.0284420755
  112.860252  0.0378782339  0.0283609908
  113.498367  0.0373646989  0.0282801408
  114.140099  0.036857903  0.0281995181
  114.785446  0.0363611914  0.0281191505
  115.434441  0.0358789861  0.02803904
  116.087112  0.0354030132  0.027959168
  116.743469  0.0349377319  0.0278794747
  117.403542  0.0344838835  0.0277999211
  118.067345  0.0340358168  0.0277206078
  118.734901  0.0335993618  0.0276415441
  119.406227  0.0331722423  0.0275627375
  120.081352  0.0327504724  0.0274841487
  120.7603  0.0323408209  0.0274058674
  121.443069  0.0319384038  0.0273278505
  122.129715  0.0315409377  0.0272500515
  122.820236  0.0311568379  0.0271723028
  123.514664  0.0307781734  0.0270947739
  124.213028  0.0304047205  0.0270174593
  124.915321  0.0300445613  0.026940478
  125.621613  0.0296886414  0.0268637016
  126.331871  0.0293395147  0.0267871451
  127.046158  0.029003419  0.0267107636
  127.764473  0.0286711734  0.0266346019
  128.486847  0.0283480324  0.0265557338
  129.213318  0.0280372351  0.0264723115
  129.943893  0.0277298447  0.0263891425
  130.678604  0.0274270084  0.0263010673
  131.417465  0.0271285158  0.0262087267
  132.160507  0.0268332679  0.0261167139
  132.907745  0.0265420042  0.0260251462
  133.65921  0.0262542516  0.0259339511
  134.414917  0.0259696208  0.0258430783
  135.174911  0.0256920718  0.0257524662
  135.939194  0.025418248  0.0256621614
  136.707794  0.02514733  0.0255721789
  137.480743  0.0248843674  0.0254824832
  138.258057  0.0246241763  0.0253931005
  139.039764  0.0243675467  0.0253040474
  139.825897  0.024118444  0.0252153743
  140.616486  0.0238718633  0.0251270048
  141.41153  0.0236296766  0.0250389129
  142.211075  0.0233942475  0.0249510389
  143.015137  0.0231611282  0.0248634722
  143.823746  0.0229335018  0.0247762334
  144.636932  0.0227118637  0.0246893521
  145.454712  0.0224923138  0.0246027671
  146.27713  0.0222795866  0.024516508
  147.104172  0.0220718067  0.0244305246
  147.935898  0.0218658876  0.0243448503
  148.772339  0.0216698945  0.0242594387
  149.613495  0.021478029  0.0241743196
  150.459412  0.0212877356  0.0240894966
  151.31012  0.0211117379  0.0239967294
  152.165619  0.0209381431  0.0239035916
  153.02597  0.0207658149  0.0238100812
  153.89119  0.0205951631  0.0237076841
  154.761292  0.0204257276  0.0236057322
  155.636322  0.0202578492  0.023504246
  156.516281  0.0200923532  0.0234032795
  157.401245  0.019928012  0.0233027432
  158.291183  0.0197671019  0.023202654
  159.186157  0.0196109321  0.0231029876
  160.086212  0.0194557831  0.02300377
  160.991333  0.0193079934  0.022904925
  161.901581  0.0191665236  0.0228064843
  162.816986  0.0190258007  0.0227084719
  163.737549  0.0188920498  0.0225985441
  164.66333  0.0187616721  0.0224836338
  165.59433  0.0186318476  0.0223693047
  166.530609  0.0184974801  0.022253627
  167.472183  0.0183628555  0.0221381932
  168.419067  0.0182289276  0.0220233649
  169.371307  0.0180990584  0.021909155
  170.328949  0.0179698132  0.0217955261
  171.291992  0.0178427193  0.0216824971
  172.260468  0.0177246276  0.0215700846
  173.234436  0.0176069345  0.0214582495
  174.213913  0.0174915232  0.0213405546
  175.198914  0.017380666  0.0212090537
  176.189499  0.0172700975  0.0210783612
  177.185684  0.0171544645  0.0209473632
  178.187485  0.0170330554  0.0208158828
  179.194962  0.0169122163  0.020685235
  180.208145  0.0167903434  0.0205554441
  181.227036  0.0166680757  0.020426482
  182.251694  0.0165464431  0.0202983338
  183.28215  0.0164223351  0.0201709978
  184.318436  0.0162980091  0.0200444516
  185.36058  0.0161744095  0.0199187044
  186.4086  0.0160485767  0.0198005196
  187.46257  0.015923284  0.0196835846
  188.522491  0.015799379  0.0195675809
  189.588394  0.0156831983  0.0194550101
  190.660324  0.015567638  0.0193430856
  191.738327  0.0154535053  0.0192317963
  192.822418  0.0153426407  0.0191211347
  193.912643  0.0152323171  0.0190111045
  195.009033  0.015123792  0.0189016908
  196.111618  0.0150177563  0.0187928863
  197.220444  0.0149121955  0.0186847001
  198.335526  0.0148090385  0.0185771603
  199.456909  0.014707936  0.0184702408
  200.584656  0.0146072395  0.0183639433
  201.718765  0.0145105822  0.0182582606
  202.859283  0.014415836  0.018153185
  204.006256  0.0143213887  0.018048713
  205.159714  0.014230961  0.017939778
  206.319702  0.014141418  0.0178305972
  207.486221  0.014052093  0.017722087
  208.659348  0.0139616141  0.0176131092
  209.839127  0.013871396  0.017504802
  211.025558  0.0137816677  0.0173971616
  212.218689  0.0136933886  0.0172901694
  213.418594  0.0136053525  0.017183831
  214.625259  0.0135181835  0.0170781519
  215.83876  0.0134325931  0.0169731192
  217.059113  0.0133472253  0.0168687385
  218.286362  0.0132630793  0.0167649928
  219.520569  0.0131802689  0.0166618805
  220.761734  0.0130976457  0.0165593941
  222.009933  0.013016738  0.0164575633
  223.265198  0.0129369115  0.0163563546
  224.527527  0.0128572369  0.0162557699
  225.797012  0.012779722  0.0161557849
  227.073669  0.0127029065  0.0160564072
  228.357559  0.0126262046  0.0159576386
  229.648697  0.0125522381  0.015859494
  230.947144  0.0124785425  0.0157619547
  232.252914  0.012405172  0.0156650189
  233.566071  0.0123346336  0.0155687043
  234.886658  0.0122641176  0.0154729784
  236.214706  0.0121944016  0.0153778344
  237.550278  0.0121271675  0.0152832326
  238.893402  0.0120599084  0.0151892146
  240.24411  0.0119940685  0.015095789
  241.602463  0.0119304052  0.0150029631
  242.968475  0.0118666627  0.01491071
  244.342224  0.011805011  0.0148190092
  245.72374  0.0117450375  0.0147278607
  247.113068  0.0116849244  0.0146372728
  248.510254  0.0116278818  0.0145472595
  249.915329  0.0115720052  0.0144578042
  251.328369  0.0115159247  0.0143689038
  252.749374  0.0114641925  0.0142805297
  254.178436  0.01141294  0.014192692
  255.615555  0.0113614481  0.014105401
  257.060822  0.0113162482  0.0140186688
  258.514252  0.0112706348  0.0139324684
  259.975891  0.0112264901  0.0138467941
  261.445801  0.0111914938  0.0137616191
  262.924011  0.0111558717  0.0136769665
  264.410583  0.0111251445  0.013592843
  265.905548  0.0111054853  0.0135092549
  267.408997  0.0110848648  0.0134261781
  268.920929  0.0110664004  0.0133227212
  270.441437  0.011050391  0.0131967496
  271.97049  0.0110333469  0.0130719673
  273.50824  0.0110041853  0.0129471123
  275.054657  0.0109676728  0.0128227035
  276.609833  0.0109305922  0.0126994858
  278.173767  0.0108880503  0.0125774555
  279.746582  0.0108437119  0.012456595
  281.328278  0.010799  0.0123368986
  282.918915  0.0107509019  0.0122183599
  284.518555  0.0107023073  0.0121009583
  286.127228  0.0106532853  0.0119846836
  287.744995  0.0106022665  0.0118695349
  289.371887  0.010551054  0.0117554935
  291.008026  0.0104993954  0.0116425389
  292.653381  0.010446772  0.0115306601
  294.308044  0.0103940079  0.0114198532
  295.972076  0.0103412094  0.0113101201
  297.645508  0.0102884322  0.011201459
  299.3284  0.0102355387  0.0110938391
  301.020813  0.010183231  0.0109862098
  302.722809  0.0101313675  0.0108787753
  304.434387  0.0100793904  0.0107723912
  306.15567  0.0100255571  0.0106649501
  307.886688  0.00997093972  0.0105577037
  309.627472  0.00991628133  0.0104515413
  311.378113  0.00986002479  0.0103464341
  313.138641  0.00980352517  0.0102423877
  314.909149  0.00974704046  0.0101393843
  316.689667  0.00968959462  0.0100374231
  318.480225  0.00963221397  0.00993648916
  320.280945  0.00957478583  0.00983656477
  322.091797  0.00951687992  0.00973764248
  323.912903  0.0094590662  0.00963971298
  325.744324  0.00940120313  0.00954277255
  327.58609  0.00934313238  0.0094468249
  329.438263  0.00928518269  0.00935184304
  331.300903  0.00922728516  0.00925780553
  333.174103  0.00916943606  0.00916469842
  335.057861  0.00911172573  0.00907253101
  336.952271  0.0090543339  0.00898068305
  338.857452  0.00899718329  0.00888941064
  340.773346  0.00894017704  0.0087990677
  342.700073  0.00888218638  0.00870907865
  344.637695  0.00882406626  0.00861985981
  346.586304  0.00876613148  0.00853155181
  348.545929  0.00870747119  0.00844414998
  350.516602  0.00864896551  0.00835764501
  352.498413  0.00859059021  0.00827202573
  354.491486  0.00853157323  0.00818727072
  356.495758  0.00847280398  0.00810339116
  358.511414  0.00841383915  0.00802036654
  360.538422  0.00835380703  0.00793819595
  362.576935  0.00829406176  0.00785686541
  364.626923  0.00823341496  0.00777659053
  366.688568  0.00817131344  0.0076974635
  368.76181  0.00810957421  0.007619143
  370.846802  0.0080485642  0.00754574221
  372.943573  0.00798820052  0.00747632748
  375.052216  0.00792817771  0.0074075507
  377.17276  0.00787081104  0.00733940862
  379.305298  0.00781467743  0.00727189425
  381.44989  0.00775880925  0.00720499875
  383.606628  0.00770463329  0.00713872025
  385.775543  0.00765092112  0.0070730513
  387.956757  0.00759746693  0.00700798724
  390.150269  0.00754544139  0.0069435183
  392.356171  0.00749363005  0.006879644
  394.574554  0.00744221499  0.00681635877
  396.805481  0.00739188679  0.00675366167
  399.049042  0.00734175136  0.00669153919
  401.305267  0.00729212118  0.00662998948
  403.57428  0.00724331476  0.00656900415
  405.856079  0.00719468761  0.00650857994
  408.150787  0.00714654382  0.00644870661
  410.458496  0.00709890015  0.00638937531
  412.779236  0.00705142645  0.0063305907
  415.113098  0.00700483657  0.00627330504
  417.460144  0.00695881248  0.00621708948
  419.820465  0.00691293925  0.00616137451
  422.194153  0.00686905533  0.00610630494
  424.581238  0.00682577398  0.00605176622
  426.981842  0.00678259926  0.00599771505
  429.395996  0.00674161781  0.00594413606
  431.823792  0.00670083147  0.0058910381
  434.26535  0.00666040741  0.00583841326
  436.720703  0.00662278663  0.00578626897
  439.189941  0.00658517191  0.00573459128
  441.673126  0.00654876418  0.00568337552
  444.170349  0.00651587872  0.00563261844
  446.681702  0.00648290664  0.00558231445
  449.207245  0.00645128405  0.00552920718
  451.74707  0.00642162794  0.00547188241
  454.30127  0.00639182562  0.00541515229
  456.869873  0.00636207173  0.00535577117
  459.453064  0.00633232389  0.00529451994
  462.050812  0.00630244473  0.00523396954
  464.663269  0.00626863912  0.00517212506
  467.290466  0.0062332917  0.00511022331
  469.932556  0.00619794847  0.00504906196
  472.589539  0.00616059639  0.00498859072
  475.261566  0.0061229947  0.00492883753
  477.9487  0.00608543959  0.00486979866
  480.651062  0.00604684884  0.0048114513
  483.368683  0.0060083596  0.00475380477
